raman   n
-2184.52	51.20
-2181.51	51.20
-2178.50	51.20
-2175.49	-2.05
-2172.49	-36.86
-2169.48	26.62
-2166.48	32.77
-2163.48	86.01
-2160.47	-71.68
-2157.47	-122.88
-2154.47	145.41
-2151.48	-36.86
-2148.48	-45.06
-2145.49	86.01
-2142.49	0.00
-2139.50	28.67
-2136.51	51.20
-2133.52	-30.72
-2130.53	26.62
-2127.54	-75.77
-2124.55	81.92
-2121.57	10.24
-2118.58	-59.39
-2115.60	100.35
-2112.62	137.21
-2109.64	26.62
-2106.66	-112.64
-2103.68	67.58
-2100.70	-24.58
-2097.73	0.00
-2094.75	172.03
-2091.78	-104.45
-2088.81	67.58
-2085.83	20.48
-2082.86	43.01
-2079.90	34.82
-2076.93	-77.82
-2073.96	180.22
-2071.00	-65.53
-2068.03	49.15
-2065.07	73.73
-2062.11	47.10
-2059.15	43.01
-2056.19	100.35
-2053.23	10.24
-2050.27	-59.39
-2047.32	-8.19
-2044.36	16.38
-2041.41	20.48
-2038.46	-14.34
-2035.51	-55.30
-2032.56	18.43
-2029.61	-118.78
-2026.66	-14.34
-2023.72	141.31
-2020.77	18.43
-2017.83	153.60
-2014.88	0.00
-2011.94	-14.34
-2009.00	55.30
-2006.06	-20.48
-2003.13	-38.91
-2000.19	-38.91
-1997.25	10.24
-1994.32	18.43
-1991.39	-6.14
-1988.45	206.84
-1985.52	104.45
-1982.59	6.14
-1979.67	36.86
-1976.74	-18.43
-1973.81	-116.73
-1970.89	69.63
-1967.96	-28.67
-1965.04	47.10
-1962.12	43.01
-1959.20	28.67
-1956.28	75.77
-1953.36	38.91
-1950.45	12.29
-1947.53	-18.43
-1944.62	32.77
-1941.70	-53.25
-1938.79	-4.10
-1935.88	147.45
-1932.97	14.34
-1930.06	4.10
-1927.15	49.15
-1924.25	-79.87
-1921.34	94.21
-1918.44	180.22
-1915.54	86.01
-1912.63	22.53
-1909.73	71.68
-1906.83	-4.10
-1903.94	-30.72
-1901.04	-14.34
-1898.14	129.02
-1895.25	-45.06
-1892.36	-67.58
-1889.46	-155.65
-1886.57	-8.19
-1883.68	53.25
-1880.79	36.86
-1877.91	16.38
-1875.02	-133.12
-1872.13	-65.53
-1869.25	-16.38
-1866.37	53.25
-1863.48	4.10
-1860.60	-10.24
-1857.72	-18.43
-1854.84	12.29
-1851.97	-36.86
-1849.09	4.10
-1846.22	-53.25
-1843.34	34.82
-1840.47	90.11
-1837.60	151.55
-1834.73	114.69
-1831.86	0.00
-1828.99	-24.58
-1826.12	59.39
-1823.26	-47.10
-1820.39	28.67
-1817.53	-24.58
-1814.67	161.79
-1811.80	81.92
-1808.94	-57.34
-1806.08	53.25
-1803.23	71.68
-1800.37	163.84
-1797.51	12.29
-1794.66	-14.34
-1791.81	73.73
-1788.95	151.55
-1786.10	-55.30
-1783.25	-26.62
-1780.40	18.43
-1777.56	151.55
-1774.71	79.87
-1771.86	49.15
-1769.02	147.45
-1766.18	-26.62
-1763.33	6.14
-1760.49	34.82
-1757.65	10.24
-1754.81	4.10
-1751.98	18.43
-1749.14	36.86
-1746.30	100.35
-1743.47	71.68
-1740.64	55.30
-1737.81	53.25
-1734.97	71.68
-1732.14	49.15
-1729.32	38.91
-1726.49	47.10
-1723.66	135.17
-1720.84	83.97
-1718.01	16.38
-1715.19	178.17
-1712.37	-36.86
-1709.55	161.79
-1706.73	-98.30
-1703.91	96.25
-1701.09	100.35
-1698.27	18.43
-1695.46	-8.19
-1692.65	-14.34
-1689.83	83.97
-1687.02	12.29
-1684.21	-36.86
-1681.40	-69.63
-1678.59	-55.30
-1675.78	49.15
-1672.98	28.67
-1670.17	102.40
-1667.37	-90.11
-1664.56	71.68
-1661.76	30.72
-1658.96	-104.45
-1656.16	6.14
-1653.36	73.73
-1650.57	94.21
-1647.77	67.58
-1644.97	96.25
-1642.18	-24.58
-1639.39	20.48
-1636.60	-129.02
-1633.80	45.06
-1631.01	63.49
-1628.23	32.77
-1625.44	32.77
-1622.65	-22.53
-1619.87	-53.25
-1617.08	118.78
-1614.30	-38.91
-1611.52	104.45
-1608.74	16.38
-1605.96	71.68
-1603.18	245.76
-1600.40	-38.91
-1597.62	108.54
-1594.85	-16.38
-1592.07	90.11
-1589.30	2.05
-1586.53	-112.64
-1583.76	90.11
-1580.99	-67.58
-1578.22	-4.10
-1575.45	147.45
-1572.68	-16.38
-1569.92	2.05
-1567.15	20.48
-1564.39	49.15
-1561.63	157.69
-1558.86	59.39
-1556.10	-53.25
-1553.34	-53.25
-1550.59	-18.43
-1547.83	-75.77
-1545.07	131.07
-1542.32	-20.48
-1539.56	-12.29
-1536.81	69.63
-1534.06	53.25
-1531.31	43.01
-1528.56	71.68
-1525.81	129.02
-1523.06	161.79
-1520.32	309.24
-1517.57	36.86
-1514.83	-53.25
-1512.09	-75.77
-1509.34	-22.53
-1506.60	223.23
-1503.86	-22.53
-1501.12	-36.86
-1498.39	-28.67
-1495.65	129.02
-1492.91	-2.05
-1490.18	45.06
-1487.45	-122.88
-1484.71	92.16
-1481.98	-6.14
-1479.25	8.19
-1476.52	20.48
-1473.80	94.21
-1471.07	14.34
-1468.34	137.21
-1465.62	-77.82
-1462.89	-2.05
-1460.17	10.24
-1457.45	143.36
-1454.73	114.69
-1452.01	-36.86
-1449.29	-8.19
-1446.57	-165.89
-1443.86	12.29
-1441.14	106.49
-1438.43	30.72
-1435.71	208.89
-1433.00	45.06
-1430.29	79.87
-1427.58	40.96
-1424.87	96.25
-1422.16	65.53
-1419.46	-40.96
-1416.75	6.14
-1414.05	73.73
-1411.34	65.53
-1408.64	92.16
-1405.94	-36.86
-1403.24	30.72
-1400.54	-145.41
-1397.84	-71.68
-1395.14	-131.07
-1392.45	-45.06
-1389.75	151.55
-1387.06	81.92
-1384.36	-118.78
-1381.67	45.06
-1378.98	-24.58
-1376.29	65.53
-1373.60	129.02
-1370.91	108.54
-1368.23	30.72
-1365.54	-16.38
-1362.86	45.06
-1360.17	-20.48
-1357.49	45.06
-1354.81	65.54
-1352.13	-126.97
-1349.45	12.29
-1346.77	-36.86
-1344.09	38.91
-1341.42	81.92
-1338.74	108.54
-1336.07	51.20
-1333.39	102.40
-1330.72	-12.29
-1328.05	30.72
-1325.38	200.70
-1322.71	71.68
-1320.04	30.72
-1317.37	53.25
-1314.71	-75.77
-1312.04	38.91
-1309.38	120.83
-1306.72	-28.67
-1304.05	90.11
-1301.39	157.69
-1298.73	-104.45
-1296.08	10.24
-1293.42	75.77
-1290.76	43.01
-1288.10	40.96
-1285.45	88.06
-1282.80	20.48
-1280.14	69.63
-1277.49	102.40
-1274.84	59.39
-1272.19	-14.34
-1269.54	-38.91
-1266.90	79.87
-1264.25	90.11
-1261.60	71.68
-1258.96	-12.29
-1256.32	-18.43
-1253.67	100.35
-1251.03	-36.86
-1248.39	-2.05
-1245.75	79.87
-1243.11	96.25
-1240.48	-90.11
-1237.84	-47.10
-1235.20	47.10
-1232.57	92.16
-1229.94	108.54
-1227.31	10.24
-1224.67	-36.86
-1222.04	38.91
-1219.41	30.72
-1216.79	43.01
-1214.16	145.41
-1211.53	38.91
-1208.91	-14.34
-1206.28	14.34
-1203.66	49.15
-1201.04	34.82
-1198.42	40.96
-1195.80	86.01
-1193.18	45.06
-1190.56	34.82
-1187.94	43.01
-1185.33	47.10
-1182.71	-24.58
-1180.10	114.69
-1177.49	43.01
-1174.87	-71.68
-1172.26	-135.17
-1169.65	40.96
-1167.04	96.25
-1164.44	59.39
-1161.83	-12.29
-1159.22	47.10
-1156.62	10.24
-1154.01	133.12
-1151.41	104.45
-1148.81	83.97
-1146.21	-40.96
-1143.61	104.45
-1141.01	61.44
-1138.41	-38.91
-1135.81	-32.77
-1133.22	100.35
-1130.62	-53.25
-1128.03	112.64
-1125.44	4.10
-1122.84	-36.86
-1120.25	-14.34
-1117.66	-43.01
-1115.07	104.45
-1112.49	-63.49
-1109.90	55.30
-1107.31	167.93
-1104.73	-116.73
-1102.14	55.30
-1099.56	51.20
-1096.98	2.05
-1094.40	4.10
-1091.82	-126.97
-1089.24	14.34
-1086.66	-22.53
-1084.08	28.67
-1081.51	86.01
-1078.93	26.62
-1076.36	71.68
-1073.79	55.30
-1071.21	-110.59
-1068.64	-38.91
-1066.07	77.82
-1063.50	-4.10
-1060.93	124.93
-1058.37	-4.10
-1055.80	-16.38
-1053.24	-6.14
-1050.67	-126.97
-1048.11	69.63
-1045.55	53.25
-1042.99	-40.96
-1040.42	-61.44
-1037.87	-83.97
-1035.31	153.60
-1032.75	67.58
-1030.19	-4.10
-1027.64	-20.48
-1025.08	112.64
-1022.53	-14.34
-1019.98	79.87
-1017.43	112.64
-1014.88	-135.17
-1012.33	14.34
-1009.78	53.25
-1007.23	-16.38
-1004.68	12.29
-1002.14	98.30
-999.59	-8.19
-997.05	-28.67
-994.51	-71.68
-991.96	47.10
-989.42	67.58
-986.88	0.00
-984.34	92.16
-981.81	88.06
-979.27	20.48
-976.73	-38.91
-974.20	-8.19
-971.66	40.96
-969.13	32.77
-966.60	176.13
-964.07	135.17
-961.54	157.69
-959.01	143.36
-956.48	-22.53
-953.95	122.88
-951.43	-75.77
-948.90	47.10
-946.38	-26.62
-943.85	77.82
-941.33	143.36
-938.81	4.10
-936.29	32.77
-933.77	4.10
-931.25	63.49
-928.73	43.01
-926.22	94.21
-923.70	36.86
-921.19	65.53
-918.67	104.45
-916.16	106.49
-913.65	59.39
-911.14	-61.44
-908.63	-30.72
-906.12	2.05
-903.61	157.69
-901.10	77.82
-898.59	40.96
-896.09	-53.25
-893.59	-98.30
-891.08	-98.30
-888.58	-47.10
-886.08	22.53
-883.58	-40.96
-881.08	43.01
-878.58	12.29
-876.08	-65.54
-873.58	159.74
-871.09	61.44
-868.59	163.84
-866.10	184.32
-863.61	53.25
-861.12	196.61
-858.62	10.24
-856.13	38.91
-853.64	-38.91
-851.16	124.93
-848.67	102.40
-846.18	67.58
-843.70	81.92
-841.21	47.10
-838.73	47.10
-836.25	65.53
-833.77	26.62
-831.28	51.20
-828.81	172.03
-826.33	137.21
-823.85	-12.29
-821.37	-4.10
-818.90	-59.39
-816.42	-129.02
-813.95	143.36
-811.47	-4.10
-809.00	57.34
-806.53	0.00
-804.06	75.77
-801.59	235.52
-799.12	315.39
-796.65	124.93
-794.19	292.86
-791.72	-18.43
-789.26	75.77
-786.79	126.97
-784.33	135.17
-781.87	204.80
-779.41	151.55
-776.95	178.17
-774.49	276.48
-772.03	124.93
-769.57	159.74
-767.12	143.36
-764.66	256.00
-762.21	178.17
-759.75	81.92
-757.30	249.85
-754.85	196.61
-752.40	20.48
-749.95	51.20
-747.50	176.13
-745.05	116.73
-742.60	63.49
-740.16	51.20
-737.71	98.30
-735.27	90.11
-732.82	79.87
-730.38	137.21
-727.94	129.02
-725.50	-45.06
-723.06	69.63
-720.62	143.36
-718.18	159.74
-715.74	83.97
-713.31	55.30
-710.87	-32.77
-708.44	83.97
-706.01	51.20
-703.57	-6.14
-701.14	2.05
-698.71	-24.58
-696.28	20.48
-693.85	75.77
-691.42	-10.24
-689.00	53.25
-686.57	-22.53
-684.15	49.15
-681.72	53.25
-679.30	79.87
-676.88	30.72
-674.45	94.21
-672.03	137.21
-669.61	20.48
-667.20	81.92
-664.78	32.77
-662.36	96.25
-659.94	108.54
-657.53	77.82
-655.12	47.10
-652.70	45.06
-650.29	-71.68
-647.88	81.92
-645.47	88.06
-643.06	-24.58
-640.65	120.83
-638.24	49.15
-635.83	88.06
-633.43	-16.38
-631.02	-100.35
-628.62	-88.06
-626.22	-65.53
-623.81	94.21
-621.41	43.01
-619.01	157.69
-616.61	-18.43
-614.21	129.02
-611.81	-12.29
-609.42	106.49
-607.02	188.41
-604.63	83.97
-602.23	120.83
-599.84	53.25
-597.45	18.43
-595.05	-26.62
-592.66	100.35
-590.27	126.97
-587.88	-20.48
-585.50	102.40
-583.11	-12.29
-580.72	38.91
-578.34	124.93
-575.95	75.77
-573.57	122.88
-571.19	49.15
-568.80	47.10
-566.42	-83.97
-564.04	153.60
-561.66	-8.19
-559.29	2.05
-556.91	-12.29
-554.53	-55.30
-552.16	-12.29
-549.78	106.49
-547.41	26.62
-545.03	63.49
-542.66	32.77
-540.29	-20.48
-537.92	86.01
-535.55	98.30
-533.18	22.53
-530.81	49.15
-528.45	-81.92
-526.08	36.86
-523.72	145.41
-521.35	34.82
-518.99	188.41
-516.63	61.44
-514.27	110.59
-511.90	36.86
-509.54	40.96
-507.19	268.28
-504.83	-59.39
-502.47	206.84
-500.11	268.28
-497.76	116.73
-495.40	299.00
-493.05	360.44
-490.70	311.29
-488.35	505.85
-486.00	600.05
-483.65	767.99
-481.30	1191.92
-478.95	1570.79
-476.60	2076.64
-474.25	2754.52
-471.91	3082.19
-469.56	3430.35
-467.22	4067.27
-464.88	4384.70
-462.53	4560.83
-460.19	4753.34
-457.85	4706.23
-455.51	4564.92
-453.17	3960.77
-450.84	3649.48
-448.50	3471.31
-446.16	3030.99
-443.83	2541.53
-441.49	2125.79
-439.16	1744.87
-436.83	1652.71
-434.50	1079.28
-432.16	915.44
-429.83	669.69
-427.50	587.77
-425.18	401.40
-422.85	454.65
-420.52	266.24
-418.20	231.42
-415.87	61.44
-413.55	90.11
-411.22	180.22
-408.90	202.75
-406.58	-90.11
-404.26	157.69
-401.94	-38.91
-399.62	98.30
-397.30	-18.43
-394.99	-47.10
-392.67	104.45
-390.35	104.45
-388.04	24.58
-385.73	55.30
-383.41	151.55
-381.10	120.83
-378.79	4.10
-376.48	6.14
-374.17	92.16
-371.86	79.87
-369.55	-20.48
-367.25	-20.48
-364.94	57.34
-362.64	55.30
-360.33	14.34
-358.03	34.82
-355.73	-30.72
-353.42	-30.72
-351.12	24.58
-348.82	141.31
-346.52	0.00
-344.23	-4.10
-341.93	-49.15
-339.63	139.26
-337.34	-49.15
-335.04	114.69
-332.75	-26.62
-330.45	-40.96
-328.16	71.68
-325.87	-65.53
-323.58	75.77
-321.29	59.39
-319.00	106.49
-316.71	86.01
-314.42	-10.24
-312.14	20.48
-309.85	40.96
-307.57	98.30
-305.28	-36.86
-303.00	30.72
-300.72	-32.77
-298.44	12.29
-296.16	86.01
-293.88	53.25
-291.60	36.86
-289.32	-69.63
-287.04	6.14
-284.77	-47.10
-282.49	169.98
-280.22	-34.82
-277.94	24.58
-275.67	75.77
-273.40	116.73
-271.13	163.84
-268.85	26.62
-266.59	81.92
-264.32	49.15
-262.05	-126.97
-259.78	118.78
-257.51	-6.14
-255.25	-20.48
-252.98	-79.87
-250.72	-14.34
-248.46	118.78
-246.20	-2.05
-243.93	-77.82
-241.67	88.06
-239.41	-57.34
-237.16	131.07
-234.90	28.67
-232.64	155.65
-230.38	-106.49
-228.13	65.54
-225.87	96.25
-223.62	28.67
-221.37	147.45
-219.11	159.74
-216.86	18.43
-214.61	30.72
-212.36	83.97
-210.11	6.14
-207.87	-45.06
-205.62	-4.10
-203.37	28.67
-201.13	-30.72
-198.88	20.48
-196.64	106.49
-194.39	6.14
-192.15	178.17
-189.91	-24.58
-187.67	145.41
-185.43	94.21
-183.19	12.29
-180.95	32.77
-178.72	69.63
-176.48	184.32
-174.24	-30.72
-172.01	-112.64
-169.77	122.88
-167.54	129.02
-165.31	4.10
-163.08	94.21
-160.85	55.30
-158.62	32.77
-156.39	86.01
-154.16	16.38
-151.93	36.86
-149.70	71.68
-147.48	51.20
-145.25	-88.06
-143.03	-122.88
-140.81	126.97
-138.58	47.10
-136.36	114.69
-134.14	16.38
-131.92	139.26
-129.70	63.49
-127.48	86.01
-125.26	-110.59
-123.05	24.58
-120.83	-26.62
-118.62	-38.91
-116.40	-61.44
-114.19	-55.30
-111.97	-57.34
-109.76	75.77
-107.55	-79.87
-105.34	-18.43
-103.13	124.93
-100.92	75.77
-98.71	147.45
-96.51	-20.48
-94.30	83.97
-92.09	-18.43
-89.89	129.02
-87.69	14.34
-85.48	288.76
-83.28	63.49
-81.08	2.05
-78.88	235.52
-76.68	229.37
-74.48	159.74
-72.28	159.74
-70.08	20.48
-67.88	86.01
-65.69	221.18
-63.49	212.99
-61.30	118.78
-59.11	311.29
-56.91	53.25
-54.72	186.37
-52.53	307.20
-50.34	239.61
-48.15	188.41
-45.96	172.03
-43.77	169.98
-41.59	268.28
-39.40	309.24
-37.21	344.06
-35.03	217.08
-32.84	313.34
-30.66	501.75
-28.48	501.75
-26.30	518.14
-24.12	1015.79
-21.94	1775.59
-19.76	3444.68
-17.58	7501.71
-15.40	15107.87
-13.22	25841.27
-11.05	36693.46
-8.87	46458.17
-6.70	54729.92
-4.52	61650.00
-2.35	59116.67
-0.18	62114.89
1.99	58514.56
4.16	52462.82
6.33	43384.17
8.50	40541.59
10.67	34760.17
12.84	30713.39
15.00	24370.83
17.17	20199.12
19.33	16066.31
21.50	12042.06
23.66	8832.89
25.83	6672.28
27.99	4286.40
30.15	2695.13
32.31	1849.32
34.47	1179.63
36.63	755.70
38.79	620.53
40.94	344.06
43.10	389.11
45.25	372.73
47.41	219.13
49.56	219.13
51.72	167.93
53.87	264.19
56.02	200.70
58.17	151.55
60.32	88.06
62.47	104.45
64.62	98.30
66.77	43.01
68.92	116.73
71.06	245.76
73.21	225.28
75.35	270.33
77.50	151.55
79.64	40.96
81.78	145.41
83.92	53.25
86.06	135.17
88.20	-59.39
90.34	112.64
92.48	94.21
94.62	143.36
96.76	120.83
98.89	155.65
101.03	149.50
103.16	192.51
105.30	153.60
107.43	57.34
109.56	133.12
111.69	141.31
113.82	221.18
115.95	65.54
118.08	157.69
120.21	272.38
122.34	182.27
124.47	169.98
126.59	90.11
128.72	141.31
130.84	157.69
132.97	133.12
135.09	290.81
137.21	313.34
139.33	266.24
141.45	186.37
143.57	253.95
145.69	176.13
147.81	333.82
149.93	292.86
152.05	321.53
154.16	178.17
156.28	337.91
158.39	305.15
160.51	247.80
162.62	534.52
164.73	247.80
166.85	440.31
168.96	399.35
171.07	434.17
173.18	518.14
175.28	595.96
177.39	645.11
179.50	722.93
181.61	964.59
183.71	1034.22
185.82	999.41
187.92	1318.89
190.02	1548.26
192.13	1746.92
194.23	2090.98
196.33	2754.52
198.43	3602.38
200.53	4614.07
202.63	6012.84
204.72	7628.68
206.82	9578.35
208.92	12183.37
211.01	13903.66
213.11	15908.62
215.20	16852.73
217.30	17553.14
219.39	17471.22
221.48	17311.48
223.57	15800.08
225.66	14319.40
227.75	13178.68
229.84	11925.32
231.93	10266.47
234.02	9015.16
236.10	7810.95
238.19	6442.91
240.28	5476.27
242.36	4831.16
244.44	3962.82
246.53	3452.88
248.61	2875.35
250.69	2576.34
252.77	2310.11
254.85	2045.92
256.93	1816.55
259.01	1562.60
261.09	1634.28
263.16	1388.52
265.24	1529.83
267.32	1558.50
269.39	1525.74
271.46	1468.39
273.54	1447.91
275.61	1669.09
277.68	1538.02
279.75	1781.73
281.82	1898.47
283.89	2033.63
285.96	2152.42
288.03	2443.23
290.10	3102.67
292.16	3485.64
294.23	4519.87
296.29	5545.90
298.36	6977.43
300.42	8847.22
302.49	11261.78
304.55	13524.79
306.61	16377.61
308.67	18288.36
310.73	19539.67
312.79	20561.61
314.85	20268.75
316.90	20192.97
318.96	18839.26
321.02	17235.70
323.07	14999.32
325.13	12810.04
327.18	10760.03
329.24	9391.98
331.29	7870.34
333.34	6703.00
335.39	5453.74
337.44	4489.15
339.49	3764.17
341.54	3016.66
343.59	2408.41
345.64	1996.77
347.68	1654.76
349.73	1429.48
351.77	1226.73
353.82	1128.43
355.86	1021.94
357.90	849.91
359.95	856.05
361.99	770.04
364.03	659.45
366.07	825.33
368.11	618.49
370.15	458.74
372.19	450.55
374.22	583.67
376.26	405.50
378.29	477.18
380.33	382.97
382.36	403.45
384.40	505.85
386.43	-1167.34
388.46	448.51
390.49	397.31
392.52	380.92
394.55	475.13
396.58	614.39
398.61	462.84
400.64	503.80
402.67	485.37
404.69	559.10
406.72	667.64
408.74	534.52
410.77	653.30
412.79	731.12
414.81	759.80
416.84	1077.23
418.86	1196.01
420.88	1755.11
422.90	2035.68
424.92	2631.64
426.94	3495.88
428.95	3989.44
430.97	5035.96
432.99	6557.60
435.00	7884.68
437.02	10008.42
439.03	12818.24
441.04	15255.32
443.06	18841.31
445.07	23864.98
447.08	29933.11
449.09	35913.18
451.10	42921.33
453.11	47369.52
455.12	52493.54
457.13	55203.00
459.13	56167.59
461.14	55583.92
463.14	52880.60
465.15	48274.72
467.15	44090.72
469.16	38653.36
471.16	33662.46
473.16	28794.44
475.16	23776.92
477.16	20125.39
479.16	16965.37
481.16	13166.39
483.16	10626.91
485.16	8537.98
487.15	6967.19
489.15	5693.35
491.15	4290.49
493.14	3452.88
495.14	2775.00
497.13	2050.02
499.12	1486.83
501.11	1521.64
503.11	1046.51
505.10	870.39
507.09	753.65
509.07	739.32
511.06	704.50
513.05	516.09
515.04	423.93
517.02	407.55
519.01	368.63
521.00	407.55
522.98	350.20
524.96	231.42
526.95	507.90
528.93	264.19
530.91	335.87
532.89	245.76
534.87	385.02
536.85	342.01
538.83	346.11
540.81	239.61
542.78	307.20
544.76	303.10
546.74	208.89
548.71	274.43
550.69	346.11
552.66	329.72
554.63	215.04
556.60	198.65
558.58	280.57
560.55	442.36
562.52	169.98
564.49	288.76
566.46	184.32
568.42	229.37
570.39	311.29
572.36	135.17
574.32	321.53
576.29	221.18
578.25	204.80
580.22	241.66
582.18	208.89
584.14	155.65
586.11	116.73
588.07	309.24
590.03	253.95
591.99	260.09
593.95	157.69
595.90	333.82
597.86	274.43
599.82	284.67
601.78	225.28
603.73	233.47
605.69	174.08
607.64	278.52
609.59	83.97
611.55	237.56
613.50	303.10
615.45	260.09
617.40	219.13
619.35	296.96
621.30	352.25
623.25	366.59
625.20	292.86
627.15	251.90
629.09	198.65
631.04	319.48
632.98	362.49
634.93	282.62
636.87	319.48
638.82	354.30
640.76	317.44
642.70	423.93
644.64	251.90
646.58	278.52
648.52	290.81
650.46	385.02
652.40	186.37
654.34	184.32
656.27	303.10
658.21	178.17
660.15	346.11
662.08	391.16
664.02	258.04
665.95	296.96
667.88	282.62
669.82	251.90
671.75	296.96
673.68	251.90
675.61	278.52
677.54	241.66
679.47	223.23
681.40	393.21
683.32	237.56
685.25	415.74
687.18	292.86
689.10	346.11
691.03	176.13
692.95	362.49
694.87	305.15
696.80	389.11
698.72	325.63
700.64	335.87
702.56	299.00
704.48	489.46
706.40	452.60
708.32	585.72
710.24	536.57
712.16	555.00
714.07	522.23
715.99	612.34
717.90	434.17
719.82	548.86
721.73	622.58
723.65	690.17
725.56	731.12
727.47	708.60
729.38	901.11
731.29	940.02
733.20	1028.08
735.11	1380.33
737.02	1372.14
738.93	1613.80
740.84	1970.15
742.74	2277.34
744.65	2523.10
746.55	3069.91
748.46	3549.13
750.36	3692.49
752.27	4331.45
754.17	4407.23
756.07	4911.03
757.97	4880.31
759.87	5109.68
761.77	5386.16
763.67	5416.88
765.57	5728.17
767.47	5369.77
769.37	5330.86
771.26	5355.44
773.16	5248.94
775.06	5214.13
776.95	5191.60
778.84	5246.90
780.74	5289.90
782.63	5439.41
784.52	5562.28
786.41	5539.76
788.30	5699.50
790.19	5459.88
792.08	5478.32
793.97	5113.78
795.86	5140.40
797.75	4790.20
799.63	4530.11
801.52	4284.35
803.41	3831.75
805.29	3463.12
807.18	3082.19
809.06	2775.00
810.94	2641.88
812.82	2414.56
814.70	2123.74
816.59	2004.96
818.47	1583.08
820.35	1357.80
822.22	1417.19
824.10	1243.12
825.98	1134.57
827.86	897.01
829.73	806.90
831.61	690.17
833.48	829.43
835.36	649.21
837.23	718.84
839.10	673.78
840.98	587.77
842.85	481.27
844.72	493.56
846.59	505.85
848.46	360.44
850.33	405.50
852.20	317.44
854.06	401.40
855.93	473.08
857.80	466.94
859.66	387.07
861.53	194.56
863.39	331.77
865.26	212.99
867.12	262.14
868.98	210.94
870.84	169.98
872.71	229.37
874.57	194.56
876.43	225.28
878.29	268.28
880.14	311.29
882.00	354.30
883.86	399.35
885.72	313.34
887.57	319.48
889.43	487.42
891.28	264.19
893.14	251.90
894.99	299.00
896.84	217.08
898.69	286.72
900.55	301.05
902.40	233.47
904.25	141.31
906.10	264.19
907.95	208.89
909.79	323.58
911.64	311.29
913.49	124.93
915.34	247.80
917.18	258.04
919.03	268.28
920.87	282.62
922.71	305.15
924.56	268.28
926.40	249.85
928.24	251.90
930.08	243.71
931.92	188.41
933.76	370.68
935.60	356.35
937.44	323.58
939.28	210.94
941.12	421.88
942.95	276.48
944.79	286.72
946.62	200.70
948.46	227.32
950.29	184.32
952.13	391.16
953.96	227.32
955.79	204.80
957.62	212.99
959.46	172.03
961.29	274.43
963.12	331.77
964.94	145.41
966.77	268.28
968.60	143.36
970.43	266.24
972.25	325.63
974.08	157.69
975.91	249.85
977.73	196.61
979.55	212.99
981.38	239.61
983.20	251.90
985.02	294.91
986.84	157.69
988.66	223.23
990.49	139.26
992.30	268.28
994.12	235.52
995.94	258.04
997.76	284.67
999.58	194.56
1001.39	174.08
1003.21	284.67
1005.02	92.16
1006.84	260.09
1008.65	292.86
1010.47	296.96
1012.28	284.67
1014.09	198.65
1015.90	237.56
1017.71	139.26
1019.52	215.04
1021.33	258.04
1023.14	233.47
1024.95	327.67
1026.76	227.32
1028.56	239.61
1030.37	309.24
1032.18	258.04
1033.98	55.30
1035.79	286.72
1037.59	235.52
1039.39	188.41
1041.20	327.68
1043.00	344.06
1044.80	49.15
1046.60	212.99
1048.40	309.24
1050.20	360.44
1052.00	292.86
1053.80	215.04
1055.59	155.65
1057.39	126.97
1059.19	184.32
1060.98	292.86
1062.78	282.62
1064.57	409.59
1066.37	86.01
1068.16	249.85
1069.95	374.78
1071.75	235.52
1073.54	196.61
1075.33	309.24
1077.12	126.97
1078.91	356.35
1080.70	247.80
1082.48	282.62
1084.27	405.50
1086.06	346.11
1087.85	362.49
1089.63	258.04
1091.42	266.24
1093.20	262.14
1094.99	200.70
1096.77	215.04
1098.55	323.58
1100.33	206.84
1102.12	253.95
1103.90	266.24
1105.68	311.29
1107.46	290.81
1109.24	251.90
1111.01	342.01
1112.79	212.99
1114.57	215.04
1116.35	196.61
1118.12	286.72
1119.90	321.53
1121.67	262.14
1123.45	407.55
1125.22	360.44
1126.99	225.28
1128.77	239.61
1130.54	288.76
1132.31	272.38
1134.08	387.07
1135.85	303.10
1137.62	223.23
1139.39	321.53
1141.15	323.58
1142.92	153.60
1144.69	247.80
1146.46	276.48
1148.22	323.58
1149.99	284.67
1151.75	227.32
1153.51	266.24
1155.28	206.84
1157.04	241.66
1158.80	208.89
1160.56	253.95
1162.32	159.74
1164.08	282.62
1165.84	169.98
1167.60	288.76
1169.36	286.72
1171.12	233.47
1172.88	317.44
1174.63	319.48
1176.39	258.04
1178.14	163.84
1179.90	210.94
1181.65	241.66
1183.41	180.22
1185.16	219.13
1186.91	237.56
1188.66	124.93
1190.41	249.85
1192.16	215.04
1193.91	284.67
1195.66	380.92
1197.41	155.65
1199.16	208.89
1200.91	247.80
1202.66	231.42
1204.40	292.86
1206.15	292.86
1207.89	391.16
1209.64	253.95
1211.38	282.62
1213.12	278.52
1214.87	274.43
1216.61	352.25
1218.35	256.00
1220.09	393.21
1221.83	247.80
1223.57	417.79
1225.31	395.26
1227.05	167.93
1228.79	315.39
1230.52	266.24
1232.26	292.86
1234.00	292.86
1235.73	260.09
1237.47	385.02
1239.20	268.28
1240.94	182.27
1242.67	276.48
1244.40	331.77
1246.13	90.11
1247.86	223.23
1249.60	307.20
1251.33	305.15
1253.06	346.11
1254.78	241.66
1256.51	167.93
1258.24	415.74
1259.97	249.85
1261.69	71.68
1263.42	296.96
1265.15	147.45
1266.87	299.00
1268.59	210.94
1270.32	194.56
1272.04	325.63
1273.76	280.57
1275.49	286.72
1277.21	233.47
1278.93	329.72
1280.65	288.76
1282.37	253.95
1284.09	190.46
1285.81	270.33
1287.52	342.01
1289.24	200.70
1290.96	276.48
1292.67	274.43
1294.39	161.79
1296.10	180.22
1297.82	266.24
1299.53	231.42
1301.24	264.19
1302.96	296.96
1304.67	239.61
1306.38	210.94
1308.09	313.34
1309.80	296.96
1311.51	184.32
1313.22	194.56
1314.93	307.20
1316.64	210.94
1318.34	262.14
1320.05	411.64
1321.75	292.86
1323.46	299.00
1325.17	292.86
1326.87	321.53
1328.57	354.30
1330.28	184.32
1331.98	305.15
1333.68	194.56
1335.38	401.40
1337.08	315.39
1338.78	294.91
1340.48	237.56
1342.18	432.12
1343.88	305.15
1345.58	288.76
1347.28	245.76
1348.97	360.44
1350.67	219.13
1352.36	272.38
1354.06	135.17
1355.75	219.13
1357.45	215.04
1359.14	210.94
1360.83	288.76
1362.53	256.00
1364.22	311.29
1365.91	268.28
1367.60	100.35
1369.29	286.72
1370.98	210.94
1372.67	243.71
1374.35	309.24
1376.04	311.29
1377.73	483.32
1379.41	200.70
1381.10	313.34
1382.79	258.04
1384.47	337.91
1386.15	264.19
1387.84	327.67
1389.52	229.37
1391.20	159.74
1392.88	303.10
1394.57	329.72
1396.25	225.28
1397.93	253.95
1399.61	241.66
1401.28	301.05
1402.96	237.56
1404.64	288.76
1406.32	387.07
1407.99	303.10
1409.67	294.91
1411.35	215.04
1413.02	385.02
1414.70	327.68
1416.37	249.85
1418.04	423.93
1419.71	292.86
1421.39	376.83
1423.06	172.03
1424.73	348.15
1426.40	188.41
1428.07	260.09
1429.74	346.11
1431.41	239.61
1433.08	378.87
1434.74	270.33
1436.41	315.39
1438.08	270.33
1439.74	135.17
1441.41	231.42
1443.07	299.00
1444.74	100.35
1446.40	256.00
1448.06	143.36
1449.72	186.37
1451.39	251.90
1453.05	239.61
1454.71	212.99
1456.37	278.52
1458.03	241.66
1459.69	247.80
1461.35	172.03
1463.00	364.54
1464.66	260.09
1466.32	274.43
1467.97	260.09
1469.63	276.48
1471.28	360.44
1472.94	294.91
1474.59	303.10
1476.25	364.54
1477.90	225.28
1479.55	321.53
1481.20	266.24
1482.85	403.45
1484.50	247.80
1486.15	440.31
1487.80	278.52
1489.45	307.20
1491.10	352.25
1492.75	450.55
1494.40	423.93
1496.04	509.94
1497.69	516.09
1499.33	499.70
1500.98	483.32
1502.62	638.97
1504.27	700.41
1505.91	694.26
1507.55	798.71
1509.19	767.99
1510.84	759.80
1512.48	888.82
1514.12	796.66
1515.76	956.40
1517.40	911.35
1519.04	927.73
1520.67	940.02
1522.31	991.22
1523.95	841.72
1525.59	929.78
1527.22	978.93
1528.86	991.22
1530.49	1011.70
1532.13	1144.81
1533.76	1085.42
1535.39	1167.34
1537.03	882.67
1538.66	1165.29
1540.29	1034.22
1541.92	1099.76
1543.55	1056.75
1545.18	792.56
1546.81	1003.50
1548.44	1036.27
1550.07	798.71
1551.70	753.65
1553.32	825.33
1554.95	716.79
1556.58	829.43
1558.20	817.14
1559.83	700.41
1561.45	700.41
1563.07	663.54
1564.70	792.56
1566.32	620.53
1567.94	634.87
1569.56	557.05
1571.19	589.82
1572.81	661.49
1574.43	585.72
1576.05	514.04
1577.66	630.77
1579.28	622.58
1580.90	608.25
1582.52	499.70
1584.14	464.89
1585.75	376.83
1587.37	614.39
1588.98	516.09
1590.60	598.01
1592.21	419.83
1593.82	534.52
1595.44	548.86
1597.05	569.34
1598.66	456.70
1600.27	458.74
1601.88	477.18
1603.49	407.55
1605.10	256.00
1606.71	348.15
1608.32	403.45
1609.93	311.29
1611.54	239.61
1613.14	301.05
1614.75	335.87
1616.36	329.72
1617.96	352.25
1619.57	296.96
1621.17	333.82
1622.77	241.66
1624.38	288.76
1625.98	256.00
1627.58	247.80
1629.18	249.85
1630.78	342.01
1632.38	135.17
1633.98	305.15
1635.58	274.43
1637.18	290.81
1638.78	387.07
1640.38	221.18
1641.98	262.14
1643.57	354.30
1645.17	335.87
1646.76	198.65
1648.36	286.72
1649.95	370.68
1651.55	190.46
1653.14	309.24
1654.73	282.62
1656.33	401.40
1657.92	272.38
1659.51	202.75
1661.10	260.09
1662.69	288.76
1664.28	233.47
1665.87	391.16
1667.46	274.43
1669.05	350.20
1670.63	305.15
1672.22	233.47
1673.81	247.80
1675.39	251.90
1676.98	202.75
1678.56	360.44
1680.15	362.49
1681.73	184.32
1683.31	342.01
1684.90	448.51
1686.48	382.97
1688.06	258.04
1689.64	268.28
1691.22	411.64
1692.80	169.98
1694.38	276.48
1695.96	206.84
1697.54	309.24
1699.12	256.00
1700.69	229.37
1702.27	239.61
1703.85	333.82
1705.42	229.37
1707.00	313.34
1708.57	311.29
1710.15	221.18
1711.72	249.85
1713.29	276.48
1714.87	235.52
1716.44	329.72
1718.01	313.34
1719.58	145.41
1721.15	206.84
1722.72	288.76
1724.29	337.91
1725.86	258.04
1727.43	301.05
1729.00	200.70
1730.56	237.56
1732.13	272.38
1733.70	268.28
1735.26	233.47
1736.83	204.80
1738.39	311.29
1739.96	403.45
1741.52	327.67
1743.08	262.14
1744.65	325.63
1746.21	247.80
1747.77	135.17
1749.33	331.77
1750.89	163.84
1752.45	331.77
1754.01	262.14
1755.57	305.15
1757.13	251.90
1758.69	350.20
1760.24	376.83
1761.80	253.95
1763.36	288.76
1764.91	208.89
1766.47	188.41
1768.02	333.82
1769.58	288.76
1771.13	356.35
1772.68	282.62
1774.24	323.58
1775.79	319.48
1777.34	307.20
1778.89	180.22
1780.44	299.00
1781.99	296.96
1783.54	284.67
1785.09	200.70
1786.64	337.91
1788.19	253.95
1789.73	180.22
1791.28	221.18
1792.83	325.63
1794.37	237.56
1795.92	376.83
1797.46	268.28
1799.01	219.13
1800.55	294.91
1802.09	253.95
1803.64	204.80
1805.18	337.91
1806.72	206.84
1808.26	299.00
1809.80	344.06
1811.34	159.74
1812.88	327.67
1814.42	362.49
1815.96	294.91
1817.50	256.00
1819.04	208.89
1820.57	129.02
1822.11	305.15
1823.65	233.47
1825.18	167.93
1826.72	333.82
1828.25	253.95
1829.78	268.28
1831.32	186.37
1832.85	391.16
1834.38	258.04
1835.92	425.98
1837.45	118.78
1838.98	210.94
1840.51	301.05
1842.04	249.85
1843.57	307.20
1845.10	301.05
1846.62	346.11
1848.15	194.56
1849.68	264.19
1851.21	292.86
1852.73	215.04
1854.26	372.73
1855.78	258.04
1857.31	358.39
1858.83	303.10
1860.36	202.75
1861.88	319.48
1863.40	372.73
1864.92	327.68
1866.45	337.91
1867.97	335.87
1869.49	327.67
1871.01	395.26
1872.53	315.39
1874.05	192.51
1875.57	276.48
1877.08	368.63
1878.60	262.14
1880.12	352.25
1881.64	206.84
1883.15	251.90
1884.67	411.64
1886.18	354.30
1887.70	165.89
1889.21	133.12
1890.72	368.63
1892.24	253.95
1893.75	210.94
1895.26	301.05
1896.77	215.04
1898.28	268.28
1899.79	243.71
1901.30	245.76
1902.81	403.45
1904.32	176.13
1905.83	145.41
1907.34	235.52
1908.85	221.18
1910.35	358.39
1911.86	227.32
1913.37	253.95
1914.87	253.95
1916.38	249.85
1917.88	475.13
1919.39	301.05
1920.89	299.00
1922.39	149.50
1923.89	221.18
1925.40	309.24
1926.90	217.08
1928.40	309.24
1929.90	180.22
1931.40	278.52
1932.90	188.41
1934.40	292.86
1935.90	251.90
1937.39	286.72
1938.89	378.87
1940.39	223.23
1941.89	266.24
1943.38	223.23
1944.88	194.56
1946.37	266.24
1947.87	235.52
1949.36	182.27
1950.85	253.95
1952.35	303.10
1953.84	339.96
1955.33	186.37
1956.82	352.25
1958.31	288.76
1959.80	327.68
1961.29	258.04
1962.78	362.49
1964.27	237.56
1965.76	438.27
1967.25	165.89
1968.74	342.01
1970.22	235.52
1971.71	280.57
1973.20	350.20
1974.68	284.67
1976.17	247.80
1977.65	301.05
1979.14	247.80
1980.62	354.30
1982.10	419.83
1983.58	245.76
1985.07	208.89
1986.55	286.72
1988.03	372.73
1989.51	356.35
1990.99	225.28
1992.47	296.96
1993.95	303.10
1995.43	190.46
1996.91	454.65
1998.38	159.74
1999.86	229.37
2001.34	350.20
2002.81	135.17
2004.29	256.00
2005.76	301.05
2007.24	198.65
2008.71	194.56
2010.19	372.73
2011.66	194.56
2013.13	194.56
2014.60	296.96
2016.08	139.26
2017.55	268.28
2019.02	212.99
2020.49	315.39
2021.96	239.61
2023.43	296.96
2024.90	253.95
2026.36	217.08
2027.83	288.76
2029.30	268.28
2030.77	303.10
2032.23	157.69
2033.70	258.04
2035.16	233.47
2036.63	112.64
2038.09	278.52
2039.56	378.87
2041.02	333.82
2042.48	239.61
2043.95	227.32
2045.41	217.08
2046.87	323.58
2048.33	356.35
2049.79	284.67
2051.25	284.67
2052.71	251.90
2054.17	231.42
2055.63	342.01
2057.09	274.43
2058.54	333.82
2060.00	272.38
2061.46	235.52
2062.91	237.56
2064.37	307.20
2065.82	260.09
2067.28	419.83
2068.73	292.86
2070.19	235.52
2071.64	264.19
2073.09	356.35
2074.54	249.85
2076.00	278.52
2077.45	276.48
2078.90	266.24
2080.35	253.95
2081.80	190.46
2083.25	229.37
2084.70	290.81
2086.14	319.48
2087.59	303.10
2089.04	260.09
2090.49	391.16
2091.93	174.08
2093.38	329.72
2094.83	163.84
2096.27	256.00
2097.71	239.61
2099.16	266.24
2100.60	313.34
2102.05	239.61
2103.49	204.80
2104.93	260.09
2106.37	174.08
2107.81	241.66
2109.25	169.98
2110.69	169.98
2112.13	151.55
2113.57	194.56
2115.01	256.00
2116.45	258.04
2117.89	169.98
2119.33	274.43
2120.76	221.18
2122.20	176.13
2123.63	276.48
2125.07	237.56
2126.51	290.81
2127.94	229.37
2129.37	245.76
2130.81	260.09
2132.24	258.04
2133.67	235.52
2135.11	241.66
2136.54	260.09
2137.97	247.80
2139.40	266.24
2140.83	354.30
2142.26	256.00
2143.69	323.58
2145.12	458.75
2146.55	194.56
2147.97	112.64
2149.40	284.67
2150.83	256.00
2152.25	153.60
2153.68	131.07
2155.11	352.25
2156.53	239.61
2157.96	368.63
2159.38	415.74
2160.80	270.33
2162.23	180.22
2163.65	235.52
2165.07	276.48
2166.49	342.01
2167.91	303.10
2169.33	182.27
2170.75	256.00
2172.17	376.83
2173.59	202.75
2175.01	253.95
2176.43	241.66
2177.85	274.43
2179.27	313.34
2180.68	286.72
2182.10	200.70
2183.52	176.13
2184.93	167.93
2186.35	161.79
2187.76	299.00
2189.18	196.61
2190.59	294.91
2192.00	217.08
2193.42	247.80
2194.83	202.75
2196.24	83.97
2197.65	258.04
2199.06	188.41
2200.47	296.96
2201.88	165.89
2203.29	202.75
2204.70	327.68
2206.11	284.67
2207.52	280.57
2208.93	270.33
2210.33	151.55
2211.74	124.93
2213.15	182.27
2214.55	143.36
2215.96	307.20
2217.36	184.32
2218.77	221.18
2220.17	178.17
2221.57	206.84
2222.98	178.17
2224.38	233.47
2225.78	112.64
2227.18	303.10
2228.58	196.61
2229.99	245.76
2231.39	329.72
2232.79	133.12
2234.18	186.37
2235.58	188.41
2236.98	358.39
2238.38	192.51
2239.78	233.47
2241.17	315.39
2242.57	260.09
2243.97	258.04
2245.36	299.00
2246.76	337.91
2248.15	276.48
2249.55	204.80
2250.94	395.26
2252.33	280.57
2253.73	159.74
2255.12	204.80
2256.51	118.78
2257.90	233.47
2259.29	278.52
2260.68	161.79
2262.07	227.32
2263.46	264.19
2264.85	174.08
2266.24	225.28
2267.63	315.39
2269.02	202.75
2270.40	225.28
2271.79	186.37
2273.18	186.37
2274.56	305.15
2275.95	292.86
2277.33	329.72
2278.72	182.27
2280.10	374.78
2281.49	172.03
2282.87	299.00
2284.25	253.95
2285.63	227.32
2287.02	364.54
2288.40	245.76
2289.78	331.77
2291.16	147.45
2292.54	204.80
2293.92	290.81
2295.30	210.94
2296.68	303.10
2298.05	122.88
2299.43	272.38
2300.81	253.95
2302.19	243.71
2303.56	178.17
2304.94	176.13
2306.31	372.73
2307.69	337.91
2309.06	223.23
2310.44	333.82
2311.81	253.95
2313.19	301.05
2314.56	206.84
2315.93	204.80
2317.30	268.28
2318.67	235.52
2320.04	210.94
2321.41	143.36
2322.78	67.58
2324.15	217.08
2325.52	249.85
2326.89	296.96
2328.26	395.26
2329.63	169.98
2331.00	409.59
2332.36	243.71
2333.73	243.71
2335.09	333.82
2336.46	268.28
2337.83	243.71
2339.19	296.96
2340.55	319.48
2341.92	253.95
2343.28	317.44
2344.64	282.62
2346.01	325.63
2347.37	370.68
2348.73	378.87
2350.09	315.39
2351.45	315.39
2352.81	126.97
2354.17	272.38
2355.53	149.50
2356.89	219.13
2358.25	231.42
2359.61	237.56
2360.96	327.68
2362.32	258.04
2363.68	264.19
2365.03	215.04
2366.39	167.93
2367.74	307.20
2369.10	311.29
2370.45	196.61
2371.81	229.37
2373.16	186.37
2374.51	374.78
2375.86	243.71
2377.22	172.03
2378.57	395.26
2379.92	194.56
2381.27	227.32
2382.62	278.52
2383.97	348.15
2385.32	299.00
2386.67	237.56
2388.02	266.24
2389.37	30.72
2390.71	243.71
2392.06	245.76
2393.41	368.63
2394.75	294.91
2396.10	227.32
2397.44	217.08
2398.79	288.76
2400.13	223.23
2401.48	258.04
2402.82	206.84
2404.17	354.30
2405.51	215.04
2406.85	172.03
2408.19	262.14
2409.53	378.87
2410.87	235.52
2412.22	358.39
2413.56	374.78
2414.89	256.00
2416.23	200.70
2417.57	206.84
2418.91	333.82
2420.25	245.76
2421.59	180.22
2422.92	323.58
2424.26	284.67
2425.60	22.53
2426.93	210.94
2428.27	274.43
2429.60	372.73
2430.94	225.28
2432.27	227.32
2433.60	233.47
2434.94	169.98
2436.27	360.44
2437.60	223.23
2438.93	163.84
2440.27	286.72
2441.60	190.46
2442.93	288.76
2444.26	292.86
2445.59	245.76
2446.92	385.02
2448.24	245.76
2449.57	331.77
2450.90	294.91
2452.23	169.98
2453.55	288.76
2454.88	256.00
2456.21	161.79
2457.53	313.34
2458.86	225.28
2460.18	116.73
2461.51	292.86
2462.83	272.38
2464.15	282.62
2465.48	225.28
2466.80	294.91
2468.12	262.14
2469.44	243.71
2470.76	219.13
2472.09	256.00
2473.41	202.75
2474.73	186.37
2476.05	194.56
2477.36	237.56
2478.68	212.99
2480.00	241.66
2481.32	192.51
2482.64	262.14
2483.95	217.08
2485.27	147.45
2486.59	256.00
2487.90	204.80
2489.22	149.50
2490.53	129.02
2491.85	264.19
2493.16	241.66
2494.47	264.19
2495.79	266.24
2497.10	358.39
2498.41	219.13
2499.72	342.01
2501.03	192.51
2502.35	172.03
2503.66	247.80
2504.97	266.24
2506.28	251.90
2507.59	106.49
2508.89	133.12
2510.20	116.73
2511.51	180.22
2512.82	288.76
2514.12	223.23
2515.43	194.56
2516.74	161.79
2518.04	477.18
2519.35	270.33
2520.65	192.51
2521.96	231.42
2523.26	309.24
2524.57	253.95
2525.87	217.08
2527.17	196.61
2528.47	229.37
2529.78	299.00
2531.08	319.48
2532.38	184.32
2533.68	272.38
2534.98	198.65
2536.28	98.30
2537.58	217.08
2538.88	212.99
2540.18	188.41
2541.47	405.50
2542.77	227.32
2544.07	307.20
2545.37	323.58
2546.66	301.05
2547.96	262.14
2549.25	161.79
2550.55	212.99
2551.84	227.32
2553.14	247.80
2554.43	174.08
2555.72	272.38
2557.02	161.79
2558.31	229.37
2559.60	139.26
2560.89	190.46
2562.18	206.84
2563.48	157.69
2564.77	223.23
2566.06	237.56
2567.35	233.47
2568.63	225.28
2569.92	178.17
2571.21	233.47
2572.50	278.52
2573.79	221.18
2575.07	129.02
2576.36	315.39
2577.65	368.63
2578.93	131.07
2580.22	288.76
2581.50	51.20
2582.79	122.88
2584.07	172.03
2585.36	208.89
2586.64	311.29
2587.92	212.99
2589.20	256.00
2590.49	135.17
2591.77	235.52
2593.05	202.75
2594.33	235.52
2595.61	288.76
2596.89	278.52
2598.17	233.47
2599.45	212.99
2600.73	272.38
2602.00	249.85
2603.28	268.28
2604.56	219.13
2605.84	233.47
2607.11	284.67
2608.39	129.02
2609.67	288.76
2610.94	75.77
2612.22	217.08
2613.49	182.27
2614.76	151.55
2616.04	303.10
2617.31	294.91
2618.58	276.48
2619.86	237.56
2621.13	262.14
2622.40	188.41
2623.67	294.91
2624.94	167.93
2626.21	389.11
2627.48	385.02
2628.75	227.32
2630.02	104.45
2631.29	196.61
2632.56	165.89
2633.82	288.76
2635.09	327.68
2636.36	282.62
2637.63	311.29
2638.89	215.04
2640.16	311.29
2641.42	299.00
2642.69	229.37
2643.95	210.94
2645.22	137.21
2646.48	251.90
2647.74	204.80
2649.01	272.38
2650.27	329.72
2651.53	153.60
2652.79	235.52
2654.05	188.41
2655.31	231.42
2656.57	284.67
2657.83	161.79
2659.09	178.17
2660.35	169.98
2661.61	124.93
2662.87	374.78
2664.13	294.91
2665.38	139.26
2666.64	243.71
2667.90	141.31
2669.15	126.97
2670.41	335.87
2671.67	202.75
2672.92	380.92
2674.17	206.84
2675.43	149.50
2676.68	225.28
2677.94	69.63
2679.19	335.87
2680.44	327.68
2681.69	145.41
2682.95	225.28
2684.20	145.41
2685.45	215.04
2686.70	321.53
2687.95	200.70
2689.20	153.60
2690.45	221.18
2691.70	237.56
2692.94	258.04
2694.19	227.32
2695.44	401.40
2696.69	210.94
2697.93	305.15
2699.18	223.23
2700.43	186.37
2701.67	313.34
2702.92	167.93
2704.16	235.52
2705.41	200.70
2706.65	354.30
2707.89	299.00
2709.14	245.76
2710.38	161.79
2711.62	256.00
2712.86	112.64
2714.11	225.28
2715.35	147.45
2716.59	221.18
2717.83	327.67
2719.07	190.46
2720.31	208.89
2721.55	305.15
2722.78	204.80
2724.02	286.72
2725.26	227.32
2726.50	104.45
2727.73	251.90
2728.97	270.33
2730.21	356.35
2731.44	292.86
2732.68	317.44
2733.91	274.43
2735.15	104.45
2736.38	249.85
2737.62	266.24
2738.85	305.15
2740.08	137.21
2741.32	251.90
2742.55	284.67
2743.78	382.97
2745.01	278.52
2746.24	210.94
2747.47	102.40
2748.70	215.04
2749.93	92.16
2751.16	231.42
2752.39	219.13
2753.62	151.55
2754.85	161.79
2756.08	145.41
2757.30	294.91
2758.53	323.58
2759.76	139.26
2760.98	235.52
2762.21	100.35
2763.43	296.96
2764.66	167.93
2765.88	219.13
2767.11	186.37
2768.33	215.04
2769.55	327.67
2770.78	176.13
2772.00	129.02
2773.22	212.99
2774.44	112.64
2775.67	346.11
2776.89	141.31
2778.11	225.28
2779.33	83.97
2780.55	311.29
2781.77	206.84
2782.99	380.92
2784.20	192.51
2785.42	133.12
2786.64	258.04
2787.86	299.00
2789.07	184.32
2790.29	202.75
2791.51	262.14
2792.72	208.89
2793.94	124.93
2795.15	51.20
2796.37	239.61
2797.58	225.28
2798.80	327.67
2800.01	325.63
2801.22	186.37
2802.44	272.38
2803.65	63.49
2804.86	210.94
2806.07	176.13
2807.28	159.74
2808.49	149.50
2809.70	131.07
2810.91	186.37
2812.12	282.62
2813.33	243.71
2814.54	290.81
2815.75	172.03
2816.96	272.38
2818.16	317.44
2819.37	266.24
2820.58	274.43
2821.78	196.61
2822.99	335.87
2824.20	161.79
2825.40	212.99
2826.61	212.99
2827.81	200.70
2829.01	178.17
2830.22	75.77
2831.42	227.32
2832.62	217.08
2833.83	147.45
2835.03	266.24
2836.23	274.43
2837.43	321.53
2838.63	139.26
2839.83	258.04
2841.03	425.98
2842.23	104.45
2843.43	221.18
2844.63	180.22
2845.83	294.91
2847.03	194.56
2848.22	186.37
2849.42	258.04
2850.62	194.56
2851.81	141.31
2853.01	221.18
2854.21	190.46
2855.40	165.89
2856.60	155.65
2857.79	159.74
2858.99	317.44
2860.18	77.82
2861.37	241.66
2862.57	249.85
2863.76	217.08
2864.95	290.81
2866.14	137.21
2867.33	239.61
2868.52	147.45
2869.72	223.23
2870.91	251.90
2872.10	178.17
2873.28	245.76
2874.47	237.56
2875.66	243.71
2876.85	286.72
2878.04	73.73
2879.23	98.30
2880.41	147.45
2881.60	266.24
2882.79	223.23
2883.97	276.48
2885.16	96.25
2886.34	151.55
2887.53	215.04
2888.71	135.17
2889.90	188.41
2891.08	194.56
2892.26	276.48
2893.45	208.89
2894.63	270.33
2895.81	188.41
2896.99	186.37
2898.17	196.61
2899.36	233.47
2900.54	299.00
2901.72	260.09
2902.90	165.89
2904.08	243.71
2905.26	135.17
2906.43	155.65
2907.61	178.17
2908.79	352.25
2909.97	235.52
2911.14	137.21
2912.32	202.75
2913.50	215.04
2914.67	131.07
2915.85	229.37
2917.02	264.19
2918.20	200.70
2919.37	208.89
2920.55	292.86
2921.72	153.60
2922.90	262.14
2924.07	172.03
2925.24	131.07
2926.41	241.66
2927.58	317.44
2928.76	223.23
2929.93	186.37
2931.10	251.90
2932.27	51.20
2933.44	292.86
2934.61	196.61
2935.78	169.98
2936.95	153.60
2938.11	118.78
2939.28	157.69
2940.45	276.48
2941.62	321.53
2942.78	169.98
2943.95	83.97
2945.12	270.33
2946.28	296.96
2947.45	102.40
2948.61	174.08
2949.78	210.94
2950.94	325.63
2952.10	149.50
2953.27	196.61
2954.43	61.44
2955.59	153.60
2956.76	307.20
2957.92	278.52
2959.08	225.28
2960.24	163.84
2961.40	253.95
2962.56	274.43
2963.72	243.71
2964.88	276.48
2966.04	231.42
2967.20	217.08
2968.36	264.19
2969.52	167.93
2970.67	167.93
2971.83	303.10
2972.99	260.09
2974.14	114.69
2975.30	180.22
2976.46	178.17
2977.61	129.02
2978.77	251.90
2979.92	182.27
2981.08	112.64
2982.23	124.93
2983.38	243.71
2984.54	188.41
2985.69	116.73
2986.84	249.85
2987.99	165.89
2989.15	247.80
2990.30	260.09
2991.45	225.28
2992.60	131.07
2993.75	210.94
2994.90	192.51
2996.05	204.80
2997.20	296.96
2998.35	178.17
2999.49	200.70
3000.64	210.94
3001.79	114.69
3002.94	126.97
3004.08	317.44
3005.23	311.29
3006.38	45.06
3007.52	65.53
3008.67	206.84
3009.81	122.88
3010.96	104.45
3012.10	106.49
3013.25	190.46
3014.39	176.13
3015.53	215.04
3016.67	200.70
3017.82	192.51
3018.96	139.26
3020.10	167.93
3021.24	260.09
3022.38	180.22
3023.52	307.20
3024.66	153.60
3025.80	165.89
3026.94	108.54
3028.08	286.72
3029.22	186.37
3030.36	188.41
3031.50	116.73
3032.63	88.06
3033.77	169.98
3034.91	233.47
3036.04	167.93
3037.18	131.07
3038.32	172.03
3039.45	229.37
3040.59	215.04
3041.72	108.54
3042.86	188.41
3043.99	98.30
3045.12	229.37
3046.26	57.34
3047.39	157.69
3048.52	241.66
3049.65	86.01
3050.78	190.46
3051.92	346.11
3053.05	151.55
3054.18	186.37
3055.31	133.12
3056.44	335.87
3057.57	141.31
3058.70	235.52
3059.82	86.01
3060.95	131.07
3062.08	180.22
3063.21	182.27
3064.34	227.32
3065.46	139.26
3066.59	192.51
3067.71	227.32
3068.84	167.93
3069.97	102.40
3071.09	-34.82
3072.22	172.03
3073.34	102.40
3074.46	266.24
3075.59	155.65
3076.71	227.32
3077.83	151.55
3078.96	200.70
3080.08	180.22
3081.20	36.86
3082.32	219.13
3083.44	196.61
3084.56	188.41
3085.68	325.63
3086.80	212.99
3087.92	159.74
3089.04	118.78
3090.16	169.98
3091.28	260.09
3092.40	73.73
3093.51	137.21
3094.63	141.31
3095.75	153.60
3096.87	96.25
3097.98	188.41
3099.10	288.76
3100.21	174.08
3101.33	264.19
3102.44	223.23
3103.56	352.25
3104.67	169.98
3105.79	110.59
3106.90	129.02
3108.01	100.35
3109.12	237.56
3110.24	251.90
3111.35	192.51
3112.46	90.11
3113.57	163.84
3114.68	186.37
3115.79	282.62
3116.90	96.25
3118.01	53.25
3119.12	77.82
3120.23	116.73
3121.34	182.27
3122.45	249.85
3123.56	133.12
3124.66	24.58
3125.77	194.56
3126.88	126.97
3127.98	174.08
3129.09	141.31
3130.20	188.41
3131.30	184.32
3132.41	180.22
3133.51	176.13
3134.61	190.46
3135.72	112.64
3136.82	208.89
3137.93	233.47
3139.03	20.48
3140.13	167.93
3141.23	67.58
3142.33	14.34
3143.44	153.60
3144.54	135.17
3145.64	149.50
3146.74	135.17
3147.84	131.07
3148.94	172.03
3150.04	221.18
3151.14	108.54
3152.23	75.77
3153.33	67.58
3154.43	256.00
3155.53	122.88
3156.63	296.96
3157.72	184.32
3158.82	100.35
3159.91	137.21
3161.01	225.28
3162.11	178.17
3163.20	83.97
3164.30	145.41
3165.39	131.07
3166.48	131.07
3167.58	116.73
3168.67	169.98
3169.76	307.20
3170.86	200.70
3171.95	86.01
3173.04	133.12
3174.13	350.20
3175.22	184.32
3176.31	354.30
3177.40	104.45
3178.49	194.56
3179.58	34.82
3180.67	180.22
3181.76	225.28
3182.85	153.60
3183.94	108.54
3185.03	90.11
3186.11	251.90
3187.20	284.67
3188.29	237.56
3189.37	241.66
3190.46	237.56
3191.55	163.84
3192.63	282.62
3193.72	335.87
3194.80	186.37
3195.89	12.29
3196.97	106.49
3198.05	264.19
3199.14	137.21
3200.22	63.49
3201.30	71.68
3202.38	313.34
3203.47	172.03
3204.55	116.73
3205.63	110.59
3206.71	110.59
3207.79	139.26
3208.87	178.17
3209.95	243.71
3211.03	186.37
3212.11	249.85
3213.19	88.06
3214.27	188.41
3215.34	153.60
3216.42	81.92
3217.50	161.79
3218.58	280.57
3219.65	98.30
3220.73	245.76
3221.80	284.67
3222.88	124.93
3223.96	182.27
3225.03	22.53
3226.10	239.61
3227.18	274.43
3228.25	210.94
3229.33	126.97
3230.40	32.77
3231.47	176.13
3232.54	176.13
3233.62	88.06
3234.69	161.79
3235.76	212.99
3236.83	12.29
3237.90	278.52
3238.97	157.69
3240.04	114.69
3241.11	81.92
3242.18	163.84
3243.25	208.89
3244.32	237.56
3245.39	270.33
3246.45	217.08
3247.52	272.38
3248.59	208.89
3249.66	133.12
3250.72	26.62
3251.79	133.12
3252.85	153.60
3253.92	219.13
3254.98	143.36
3256.05	233.47
3257.11	167.93
3258.18	143.36
3259.24	215.04
3260.30	135.17
3261.37	26.62
3262.43	200.70
3263.49	176.13
3264.55	251.90
3265.62	407.55
3266.68	180.22
3267.74	231.42
3268.80	169.98
3269.86	114.69
3270.92	131.07
3271.98	98.30
3273.04	167.93
3274.10	141.31
3275.16	69.63
3276.21	196.61
3277.27	131.07
3278.33	26.62
3279.39	108.54
3280.44	55.30
3281.50	188.41
3282.56	219.13
3283.61	34.82
3284.67	188.41
3285.72	174.08
3286.78	108.54
3287.83	77.82
3288.88	122.88
3289.94	311.29
3290.99	296.96
3292.04	106.49
3293.10	116.73
3294.15	161.79
3295.20	135.17
3296.25	247.80
3297.30	219.13
3298.36	104.45
3299.41	63.49
3300.46	86.01
3301.51	200.70
3302.56	145.41
3303.61	184.32
3304.65	233.47
3305.70	200.70
3306.75	110.59
3307.80	241.66
3308.85	40.96
3309.89	231.42
3310.94	153.60
3311.99	129.02
3313.03	215.04
3314.08	198.65
3315.12	221.18
3316.17	14.34
3317.21	229.37
3318.26	382.97
3319.30	204.80
3320.35	167.93
3321.39	217.08
3322.43	90.11
3323.48	311.29
3324.52	90.11
3325.56	114.69
3326.60	249.85
3327.64	163.84
3328.68	172.03
3329.73	169.98
3330.77	116.73
3331.81	253.95
3332.85	276.48
3333.88	225.28
3334.92	122.88
3335.96	180.22
3337.00	137.21
3338.04	210.94
3339.08	165.89
3340.11	182.27
3341.15	313.34
3342.19	10.24
3343.22	172.03
3344.26	258.04
3345.30	325.63
3346.33	131.07
3347.37	106.49
3348.40	321.53
3349.43	106.49
3350.47	169.98
3351.50	296.96
3352.54	260.09
3353.57	227.32
3354.60	65.53
3355.63	-10.24
3356.67	161.79
3357.70	249.85
3358.73	215.04
3359.76	215.04
3360.79	303.10
3361.82	108.54
3362.85	135.17
3363.88	94.21
3364.91	204.80
3365.94	176.13
3366.97	122.88
3367.99	153.60
3369.02	219.13
3370.05	102.40
3371.08	212.99
3372.10	176.13
3373.13	194.56
3374.16	212.99
3375.18	239.61
3376.21	159.74
3377.23	122.88
3378.26	30.72
3379.28	225.28
3380.31	204.80
3381.33	196.61
3382.35	186.37
3383.38	122.88
3384.40	165.89
3385.42	200.70
3386.45	126.97
3387.47	167.93
3388.49	118.78
3389.51	253.95
3390.53	157.69
3391.55	307.20
3392.57	192.51
3393.59	151.55
3394.61	241.66
3395.63	167.93
3396.65	122.88
3397.67	20.48
3398.69	264.19
3399.70	157.69
3400.72	249.85
3401.74	221.18
3402.76	182.27
3403.77	145.41
3404.79	202.75
3405.80	227.32
3406.82	294.91
3407.83	161.79
3408.85	235.52
3409.86	325.63
3410.88	217.08
3411.89	73.73
3412.91	155.65
3413.92	227.32
3414.93	145.41
3415.94	135.17
3416.96	100.35
3417.97	55.30
3418.98	153.60
3419.99	169.98
3421.00	145.41
3422.01	98.30
3423.02	149.50
3424.03	176.13
3425.04	88.06
3426.05	73.73
3427.06	120.83
3428.07	182.27
3429.08	266.24
3430.09	147.45
3431.09	143.36
3432.10	215.04
3433.11	163.84
3434.12	90.11
3435.12	131.07
3436.13	92.16
3437.13	139.26
3438.14	253.95
3439.14	120.83
3440.15	198.65
3441.15	247.80
3442.16	63.49
3443.16	219.13
3444.16	225.28
3445.17	122.88
3446.17	184.32
3447.17	198.65
3448.17	167.93
3449.18	96.25
3450.18	108.54
3451.18	335.87
3452.18	176.13
3453.18	157.69
3454.18	176.13
3455.18	69.63
3456.18	0.00
3457.18	163.84
3458.18	258.04
3459.17	219.13
3460.17	208.89
3461.17	169.98
3462.17	47.10
3463.17	256.00
3464.16	172.03
3465.16	145.41
3466.15	129.02
3467.15	118.78
3468.15	276.48
3469.14	225.28
3470.14	63.49
3471.13	169.98
3472.13	296.96
3473.12	81.92
3474.11	102.40
3475.11	133.12
3476.10	102.40
3477.09	212.99
3478.08	194.56
3479.08	241.66
3480.07	92.16
3481.06	192.51
3482.05	241.66
3483.04	75.77
3484.03	264.19
3485.02	256.00
3486.01	133.12
3487.00	98.30
3487.99	239.61
3488.98	141.31
3489.97	159.74
3490.95	36.86
3491.94	231.42
3492.93	83.97
3493.92	200.70
3494.90	192.51
3495.89	135.17
3496.88	174.08
3497.86	135.17
3498.85	118.78
3499.83	204.80
3500.82	51.20
3501.80	206.84
3502.79	174.08
3503.77	163.84
3504.75	225.28
3505.74	65.53
3506.72	235.52
3507.70	231.42
3508.68	139.26
3509.67	219.13
3510.65	88.06
3511.63	198.65
3512.61	135.17
3513.59	182.27
3514.57	98.30
3515.55	231.42
3516.53	157.69
3517.51	55.30
3518.49	180.22
3519.47	131.07
3520.45	161.79
3521.42	122.88
3522.40	217.08
3523.38	288.76
3524.36	241.66
3525.33	57.34
3526.31	88.06
3527.29	237.56
3528.26	253.95
3529.24	30.72
3530.21	141.31
3531.19	131.07
3532.16	88.06
3533.14	118.78
3534.11	8.19
3535.08	118.78
3536.06	167.93
3537.03	141.31
3538.00	155.65
3538.98	163.84
3539.95	204.80
3540.92	296.96
3541.89	182.27
3542.86	65.54
3543.83	57.34
3544.80	108.54
3545.77	124.93
3546.74	47.10
3547.71	182.27
3548.68	49.15
3549.65	233.47
3550.62	272.38
3551.59	126.97
3552.56	202.75
3553.52	225.28
3554.49	174.08
3555.46	-2.05
3556.42	231.42
3557.39	26.62
3558.36	212.99
3559.32	-24.58
3560.29	202.75
3561.25	233.47
3562.22	124.93
3563.18	108.54
3564.15	24.58
3565.11	114.69
3566.07	268.28
3567.04	104.45
3568.00	206.84
3568.96	98.30
3569.92	75.77
3570.89	38.91
3571.85	126.97
3572.81	143.36
3573.77	77.82
3574.73	57.34
3575.69	75.77
3576.65	75.77
3577.61	145.41
3578.57	184.32
3579.53	143.36
3580.49	112.64
3581.45	14.34
3582.40	229.37
3583.36	217.08
3584.32	272.38
3585.28	24.58
3586.23	77.82
3587.19	137.21
3588.15	266.24
3589.10	241.66
3590.06	219.13
3591.01	251.90
3591.97	81.92
3592.92	204.80
3593.88	10.24
3594.83	178.17
3595.78	206.84
3596.74	206.84
3597.69	-53.25
3598.64	-10.24
3599.60	49.15
3600.55	163.84
3601.50	81.92
3602.45	104.45
3603.40	141.31
3604.35	71.68
3605.31	20.48
3606.26	182.27
3607.21	34.82
3608.16	258.04
3609.10	212.99
3610.05	139.26
3611.00	8.19
3611.95	137.21
3612.90	83.97
3613.85	186.37
3614.79	251.90
3615.74	262.14
3616.69	12.29
3617.63	137.21
3618.58	176.13
3619.53	172.03
3620.47	104.45
3621.42	251.90
3622.36	307.20
3623.31	2.05
3624.25	165.89
3625.20	204.80
3626.14	198.65
3627.08	223.23
3628.03	94.21
3628.97	100.35
3629.91	63.49
3630.85	163.84
3631.80	135.17
3632.74	94.21
3633.68	73.73
3634.62	163.84
3635.56	202.75
3636.50	165.89
3637.44	77.82
3638.38	-34.82
3639.32	118.78
3640.26	4.10
3641.20	176.13
3642.14	133.12
3643.08	110.59
3644.01	129.02
3644.95	129.02
3645.89	81.92
3646.83	83.97
3647.76	180.22
3648.70	159.74
3649.63	196.61
3650.57	110.59
3651.51	147.45
3652.44	192.51
3653.38	53.25
3654.31	112.64
3655.24	294.91
3656.18	137.21
3657.11	129.02
3658.05	126.97
3658.98	159.74
3659.91	47.10
3660.84	192.51
3661.78	307.20
3662.71	49.15
3663.64	135.17
3664.57	98.30
3665.50	155.65
3666.43	22.53
3667.36	155.65
3668.29	-43.01
3669.22	245.76
3670.15	86.01
3671.08	145.41
3672.01	229.37
3672.94	133.12
3673.86	274.43
3674.79	77.82
3675.72	210.94
3676.65	-2.05
3677.57	22.53
3678.50	194.56
3679.43	182.27
3680.35	233.47
3681.28	131.07
3682.20	215.04
3683.13	137.21
3684.05	100.35
3684.98	245.76
3685.90	96.25
3686.83	32.77
3687.75	28.67
3688.67	40.96
3689.60	186.37
3690.52	16.38
3691.44	145.41
3692.36	94.21
3693.28	102.40
3694.21	94.21
3695.13	135.17
3696.05	141.31
3696.97	161.79
3697.89	104.45
3698.81	81.92
3699.73	172.03
3700.65	221.18
3701.57	190.46
3702.48	190.46
3703.40	165.89
3704.32	12.29
3705.24	229.37
3706.16	55.30
3707.07	104.45
3707.99	96.25
3708.91	149.50
3709.82	176.13
3710.74	157.69
3711.66	223.23
3712.57	221.18
3713.49	174.08
3714.40	20.48
3715.31	141.31
3716.23	98.30
3717.14	106.49
3718.06	241.66
3718.97	163.84
3719.88	204.80
3720.80	77.82
3721.71	-6770.58
3722.62	354.30
3723.53	149.50
3724.44	77.82
3725.35	129.02
3726.26	131.07
3727.18	118.78
3728.09	55.30
3729.00	131.07
3729.91	149.50
3730.81	151.55
3731.72	-18.43
3732.63	145.41
3733.54	180.22
3734.45	108.54
3735.36	108.54
3736.26	18.43
3737.17	200.70
3738.08	122.88
3738.99	161.79
3739.89	276.48
3740.80	65.53
3741.70	-14.34
3742.61	157.69
3743.51	151.55
3744.42	235.52
3745.32	266.24
3746.23	229.37
3747.13	-10.24
3748.04	155.65
3748.94	196.61
3749.84	122.88
3750.74	182.27
3751.65	59.39
3752.55	131.07
3753.45	22.53
3754.35	26.62
3755.25	202.75
3756.16	172.03
3757.06	83.97
3757.96	124.93
3758.86	71.68
3759.76	59.39
3760.66	188.41
3761.55	30.72
3762.45	167.93
3763.35	47.10
3764.25	137.21
3765.15	-77.82
3766.05	53.25
3766.94	129.02
3767.84	30.72
3768.74	153.60
3769.63	143.36
3770.53	141.31
3771.43	155.65
3772.32	90.11
3773.22	102.40
3774.11	26.62
3775.01	258.04
3775.90	204.80
3776.80	18.43
3777.69	104.45
3778.58	47.10
3779.48	174.08
3780.37	184.32
3781.26	196.61
3782.16	159.74
3783.05	133.12
3783.94	204.80
3784.83	174.08
3785.72	129.02
3786.61	6.14
3787.50	167.93
3788.39	165.89
3789.28	86.01
3790.17	196.61
3791.06	133.12
3791.95	145.41
3792.84	112.64
3793.73	69.63
3794.62	110.59
3795.51	96.25
3796.39	182.27
3797.28	188.41
3798.17	81.92
3799.06	-2.05
3799.94	12.29
3800.83	40.96
3801.71	163.84
3802.60	86.01
3803.48	178.17
3804.37	12.29
3805.25	204.80
3806.14	157.69
3807.02	122.88
3807.91	143.36
3808.79	75.77
3809.67	174.08
3810.56	309.24
3811.44	194.56
3812.32	69.63
3813.20	-92.16
3814.09	45.06
3814.97	155.65
3815.85	59.39
3816.73	79.87
3817.61	280.57
3818.49	51.20
3819.37	106.49
3820.25	167.93
3821.13	118.78
3822.01	124.93
3822.89	106.49
3823.77	221.18
3824.65	57.34
3825.52	-14.34
3826.40	116.73
3827.28	258.04
3828.16	133.12
3829.03	249.85
3829.91	337.91
3830.79	112.64
3831.66	174.08
3832.54	86.01
3833.41	137.21
3834.29	169.98
3835.16	40.96
3836.04	67.58
3836.91	114.69
3837.79	139.26
3838.66	6.14
3839.53	43.01
3840.41	139.26
3841.28	106.49
3842.15	237.56
3843.02	0.00
3843.90	96.25
3844.77	182.27
3845.64	159.74
3846.51	235.52
3847.38	225.28
3848.25	81.92
3849.12	141.31
3849.99	176.13
3850.86	108.54
3851.73	204.80
3852.60	67.58
3853.47	118.78
3854.34	131.07
3855.21	112.64
3856.07	139.26
3856.94	112.64
3857.81	32.77
3858.68	65.54
3859.54	108.54
3860.41	49.15
3861.28	75.77
3862.14	92.16
3863.01	153.60
3863.87	167.93
3864.74	75.77
3865.60	231.42
3866.47	178.17
3867.33	145.41
3868.19	161.79
3869.06	198.65
3869.92	133.12
3870.78	90.11
3871.65	92.16
3872.51	53.25
3873.37	260.09
3874.23	317.44
3875.10	161.79
3875.96	69.63
3876.82	86.01
3877.68	114.69
3878.54	75.77
3879.40	235.52
3880.26	94.21
3881.12	104.45
3881.98	167.93
3882.84	120.83
3883.70	245.76
3884.55	83.97
3885.41	24.58
3886.27	116.73
3887.13	69.63
3887.99	188.41
3888.84	92.16
3889.70	83.97
3890.56	24.58
3891.41	88.06
3892.27	137.21
3893.12	212.99
3893.98	198.65
3894.83	-40.96
3895.69	266.24
3896.54	307.20
3897.40	282.62
3898.25	-6.14
3899.11	86.01
3899.96	88.06
3900.81	116.73
3901.66	155.65
3902.52	180.22
3903.37	45.06
3904.22	110.59
3905.07	159.74
3905.92	186.37
3906.78	65.53
3907.63	241.66
