SpectraSuite Datei
++++++++++++++++++++++++++++++++++++
Datum: Wed Nov 28 11:26:17 CET 2018
Benutzer: Raman
Dark-Spektrum vorhanden: Ja
Referenz-Spektrum vorhanden: Nein
Zahl der probierten Teilspektren: 1
Spektrometer: USB4F00098
Integrationszeit (usec): 2200000 (USB4F00098)
Spektren Durchschnitt berechnet: 1 (USB4F00098)
Boxcar Glättung: 0 (USB4F00098)
Dunkelstromkorrektur: Nein (USB4F00098)
Puls/Lampe aktiviert: Nein (USB4F00098)
Correct for Detector Non-linearity: Nein (USB4F00098)
Streulichtkorrektur: Nein (USB4F00098)
Anzahl Pixel in verarbeitetem Spektrum: 3648
>>>>>Begin Processed Spectral Data<<<<<
-2184,52	73,73
-2181,51	73,73
-2178,50	73,73
-2175,49	38,91
-2172,49	-59,39
-2169,48	28,67
-2166,48	61,44
-2163,48	-73,73
-2160,47	-71,68
-2157,47	14,34
-2154,47	16,38
-2151,48	145,41
-2148,48	-118,78
-2145,49	4,10
-2142,49	-18,43
-2139,50	22,53
-2136,51	51,20
-2133,52	-12,29
-2130,53	53,25
-2127,54	75,77
-2124,55	-55,30
-2121,57	59,39
-2118,58	-88,06
-2115,60	53,25
-2112,62	-53,25
-2109,64	-16,38
-2106,66	-20,48
-2103,68	-55,30
-2100,70	16,38
-2097,73	-10,24
-2094,75	112,64
-2091,78	-10,24
-2088,81	57,34
-2085,83	-16,38
-2082,86	43,01
-2079,90	77,82
-2076,93	10,24
-2073,96	75,77
-2071,00	47,10
-2068,03	30,72
-2065,07	-20,48
-2062,11	-16,38
-2059,15	32,77
-2056,19	145,41
-2053,23	-4,10
-2050,27	40,96
-2047,32	92,16
-2044,36	71,68
-2041,41	-94,21
-2038,46	102,40
-2035,51	61,44
-2032,56	65,53
-2029,61	86,01
-2026,66	18,43
-2023,72	-18,43
-2020,77	30,72
-2017,83	-47,10
-2014,88	63,49
-2011,94	20,48
-2009,00	116,73
-2006,06	73,73
-2003,13	38,91
-2000,19	-88,06
-1997,25	32,77
-1994,32	79,87
-1991,39	32,77
-1988,45	8,19
-1985,52	-51,20
-1982,59	38,91
-1979,67	24,58
-1976,74	36,86
-1973,81	16,38
-1970,89	86,01
-1967,96	-104,45
-1965,04	55,30
-1962,12	88,06
-1959,20	-40,96
-1956,28	-184,32
-1953,36	51,20
-1950,45	-34,82
-1947,53	14,34
-1944,62	75,77
-1941,70	-47,10
-1938,79	4,10
-1935,88	-53,25
-1932,97	40,96
-1930,06	98,30
-1927,15	-12,29
-1924,25	102,40
-1921,34	112,64
-1918,44	38,91
-1915,54	-98,30
-1912,63	86,01
-1909,73	-49,15
-1906,83	-77,82
-1903,94	55,30
-1901,04	0,00
-1898,14	30,72
-1895,25	8,19
-1892,36	-73,73
-1889,46	45,06
-1886,57	32,77
-1883,68	133,12
-1880,79	-63,49
-1877,91	-67,58
-1875,02	40,96
-1872,13	-73,73
-1869,25	126,97
-1866,37	-51,20
-1863,48	0,00
-1860,60	49,15
-1857,72	-51,20
-1854,84	53,25
-1851,97	38,91
-1849,09	30,72
-1846,22	-4,10
-1843,34	65,54
-1840,47	-43,01
-1837,60	63,49
-1834,73	24,58
-1831,86	-59,39
-1828,99	61,44
-1826,12	196,61
-1823,26	-45,06
-1820,39	180,22
-1817,53	-79,87
-1814,67	159,74
-1811,80	88,06
-1808,94	28,67
-1806,08	-122,88
-1803,23	155,65
-1800,37	-108,54
-1797,51	-16,38
-1794,66	-38,91
-1791,81	116,73
-1788,95	-26,62
-1786,10	165,89
-1783,25	-77,82
-1780,40	112,64
-1777,56	126,97
-1774,71	135,17
-1771,86	129,02
-1769,02	-2,05
-1766,18	0,00
-1763,33	32,77
-1760,49	0,00
-1757,65	92,16
-1754,81	2,05
-1751,98	47,10
-1749,14	96,25
-1746,30	71,68
-1743,47	-131,07
-1740,64	86,01
-1737,81	102,40
-1734,97	69,63
-1732,14	-24,58
-1729,32	-16,38
-1726,49	-22,53
-1723,66	-10,24
-1720,84	-81,92
-1718,01	-102,40
-1715,19	28,67
-1712,37	43,01
-1709,55	34,82
-1706,73	75,77
-1703,91	-83,97
-1701,09	86,01
-1698,27	55,30
-1695,46	-53,25
-1692,65	-10,24
-1689,83	22,53
-1687,02	-16,38
-1684,21	-18,43
-1681,40	61,44
-1678,59	-38,91
-1675,78	-16,38
-1672,98	118,78
-1670,17	-10,24
-1667,37	-106,49
-1664,56	65,54
-1661,76	92,16
-1658,96	-88,06
-1656,16	55,30
-1653,36	176,13
-1650,57	-51,20
-1647,77	94,21
-1644,97	69,63
-1642,18	16,38
-1639,39	24,58
-1636,60	59,39
-1633,80	-4,10
-1631,01	51,20
-1628,23	108,54
-1625,44	-75,77
-1622,65	-45,06
-1619,87	34,82
-1617,08	32,77
-1614,30	-49,15
-1611,52	0,00
-1608,74	-55,30
-1605,96	10,24
-1603,18	86,01
-1600,40	67,58
-1597,62	-45,06
-1594,85	24,58
-1592,07	34,82
-1589,30	86,01
-1586,53	-92,16
-1583,76	-73,73
-1580,99	20,48
-1578,22	51,20
-1575,45	-32,77
-1572,68	-55,30
-1569,92	83,97
-1567,15	-169,98
-1564,39	-18,43
-1561,63	-75,77
-1558,86	112,64
-1556,10	22,53
-1553,34	77,82
-1550,59	-32,77
-1547,83	57,34
-1545,07	-94,21
-1542,32	108,54
-1539,56	100,35
-1536,81	8,19
-1534,06	16,38
-1531,31	-32,77
-1528,56	22,53
-1525,81	-69,63
-1523,06	40,96
-1520,32	22,53
-1517,57	53,25
-1514,83	0,00
-1512,09	-67,58
-1509,34	-18,43
-1506,60	10,24
-1503,86	-8,19
-1501,12	98,30
-1498,39	34,82
-1495,65	-61,44
-1492,91	77,82
-1490,18	4,10
-1487,45	-4,10
-1484,71	51,20
-1481,98	38,91
-1479,25	20,48
-1476,52	-30,72
-1473,80	-106,49
-1471,07	28,67
-1468,34	-4,10
-1465,62	-38,91
-1462,89	-38,91
-1460,17	-47,10
-1457,45	-32,77
-1454,73	73,73
-1452,01	-30,72
-1449,29	40,96
-1446,57	-114,69
-1443,86	-24,58
-1441,14	69,63
-1438,43	18,43
-1435,71	-92,16
-1433,00	67,58
-1430,29	18,43
-1427,58	-49,15
-1424,87	79,87
-1422,16	83,97
-1419,46	-4,10
-1416,75	40,96
-1414,05	-49,15
-1411,34	-20,48
-1408,64	-22,53
-1405,94	184,32
-1403,24	-12,29
-1400,54	118,78
-1397,84	137,21
-1395,14	-14,34
-1392,45	92,16
-1389,75	88,06
-1387,06	96,25
-1384,36	-12,29
-1381,67	69,63
-1378,98	-36,86
-1376,29	88,06
-1373,60	112,64
-1370,91	-57,34
-1368,23	32,77
-1365,54	75,77
-1362,86	6,14
-1360,17	55,30
-1357,49	45,06
-1354,81	32,77
-1352,13	86,01
-1349,45	38,91
-1346,77	2,05
-1344,09	30,72
-1341,42	45,06
-1338,74	-108,54
-1336,07	-63,49
-1333,39	65,53
-1330,72	-24,58
-1328,05	-43,01
-1325,38	0,00
-1322,71	-20,48
-1320,04	-12,29
-1317,37	43,01
-1314,71	163,84
-1312,04	-6,14
-1309,38	10,24
-1306,72	57,34
-1304,05	137,21
-1301,39	55,30
-1298,73	-36,86
-1296,08	49,15
-1293,42	215,04
-1290,76	83,97
-1288,10	-192,51
-1285,45	-61,44
-1282,80	79,87
-1280,14	-14,34
-1277,49	-73,73
-1274,84	-49,15
-1272,19	-4,10
-1269,54	63,49
-1266,90	-36,86
-1264,25	-36,86
-1261,60	-83,97
-1258,96	53,25
-1256,32	2,05
-1253,67	-126,97
-1251,03	8,19
-1248,39	10,24
-1245,75	88,06
-1243,11	-14,34
-1240,48	-26,62
-1237,84	-71,68
-1235,20	96,25
-1232,57	-10,24
-1229,94	-4,10
-1227,31	22,53
-1224,67	61,44
-1222,04	-8,19
-1219,41	-36,86
-1216,79	61,44
-1214,16	-14,34
-1211,53	-135,17
-1208,91	75,77
-1206,28	-61,44
-1203,66	-14,34
-1201,04	71,68
-1198,42	131,07
-1195,80	104,45
-1193,18	-40,96
-1190,56	-96,25
-1187,94	-86,01
-1185,33	-43,01
-1182,71	-24,58
-1180,10	83,97
-1177,49	40,96
-1174,87	55,30
-1172,26	108,54
-1169,65	36,86
-1167,04	102,40
-1164,44	79,87
-1161,83	75,77
-1159,22	32,77
-1156,62	32,77
-1154,01	100,35
-1151,41	40,96
-1148,81	-14,34
-1146,21	86,01
-1143,61	12,29
-1141,01	0,00
-1138,41	-139,26
-1135,81	-67,58
-1133,22	92,16
-1130,62	59,39
-1128,03	196,61
-1125,44	18,43
-1122,84	61,44
-1120,25	-51,20
-1117,66	51,20
-1115,07	75,77
-1112,49	-83,97
-1109,90	-59,39
-1107,31	61,44
-1104,73	-98,30
-1102,14	43,01
-1099,56	81,92
-1096,98	8,19
-1094,40	-47,10
-1091,82	-6,14
-1089,24	-65,54
-1086,66	88,06
-1084,08	38,91
-1081,51	22,53
-1078,93	-71,68
-1076,36	24,58
-1073,79	67,58
-1071,21	-28,67
-1068,64	-14,34
-1066,07	36,86
-1063,50	-2,05
-1060,93	6,14
-1058,37	10,24
-1055,80	67,58
-1053,24	55,30
-1050,67	24,58
-1048,11	53,25
-1045,55	32,77
-1042,99	71,68
-1040,42	122,88
-1037,87	86,01
-1035,31	0,00
-1032,75	43,01
-1030,19	-8,19
-1027,64	65,53
-1025,08	83,97
-1022,53	2,05
-1019,98	61,44
-1017,43	260,09
-1014,88	122,88
-1012,33	147,45
-1009,78	47,10
-1007,23	411,64
-1004,68	253,95
-1002,14	299,00
-999,59	452,60
-997,05	405,50
-994,51	274,43
-991,96	342,01
-989,42	366,59
-986,88	313,34
-984,34	315,39
-981,81	208,89
-979,27	131,07
-976,73	196,61
-974,20	10,24
-971,66	122,88
-969,13	16,38
-966,60	43,01
-964,07	55,30
-961,54	-18,43
-959,01	61,44
-956,48	176,13
-953,95	34,82
-951,43	106,49
-948,90	114,69
-946,38	28,67
-943,85	67,58
-941,33	92,16
-938,81	32,77
-936,29	6,14
-933,77	75,77
-931,25	-22,53
-928,73	28,67
-926,22	26,62
-923,70	45,06
-921,19	131,07
-918,67	-30,72
-916,16	67,58
-913,65	-94,21
-911,14	102,40
-908,63	118,78
-906,12	-6,14
-903,61	-10,24
-901,10	45,06
-898,59	98,30
-896,09	81,92
-893,59	186,37
-891,08	86,01
-888,58	161,79
-886,08	-14,34
-883,58	32,77
-881,08	36,86
-878,58	61,44
-876,08	90,11
-873,58	151,55
-871,09	45,06
-868,59	-30,72
-866,10	55,30
-863,61	94,21
-861,12	225,28
-858,62	157,69
-856,13	161,79
-853,64	75,77
-851,16	188,41
-848,67	90,11
-846,18	57,34
-843,70	96,25
-841,21	57,34
-838,73	8,19
-836,25	24,58
-833,77	-12,29
-831,28	36,86
-828,81	16,38
-826,33	110,59
-823,85	120,83
-821,37	63,49
-818,90	63,49
-816,42	167,93
-813,95	79,87
-811,47	116,73
-809,00	118,78
-806,53	88,06
-804,06	51,20
-801,59	108,54
-799,12	51,20
-796,65	126,97
-794,19	20,48
-791,72	206,84
-789,26	126,97
-786,79	139,26
-784,33	30,72
-781,87	135,17
-779,41	110,59
-776,95	96,25
-774,49	34,82
-772,03	151,55
-769,57	98,30
-767,12	28,67
-764,66	40,96
-762,21	67,58
-759,75	53,25
-757,30	61,44
-754,85	67,58
-752,40	139,26
-749,95	88,06
-747,50	126,97
-745,05	172,03
-742,60	165,89
-740,16	32,77
-737,71	36,86
-735,27	90,11
-732,82	32,77
-730,38	120,83
-727,94	196,61
-725,50	161,79
-723,06	22,53
-720,62	71,68
-718,18	-2,05
-715,74	45,06
-713,31	63,49
-710,87	-53,25
-708,44	110,59
-706,01	55,30
-703,57	151,55
-701,14	83,97
-698,71	100,35
-696,28	0,00
-693,85	67,58
-691,42	184,32
-689,00	73,73
-686,57	165,89
-684,15	90,11
-681,72	12,29
-679,30	161,79
-676,88	137,21
-674,45	184,32
-672,03	112,64
-669,61	104,45
-667,20	110,59
-664,78	141,31
-662,36	204,80
-659,94	135,17
-657,53	129,02
-655,12	88,06
-652,70	83,97
-650,29	126,97
-647,88	88,06
-645,47	77,82
-643,06	215,04
-640,65	141,31
-638,24	147,45
-635,83	204,80
-633,43	114,69
-631,02	131,07
-628,62	63,49
-626,22	67,58
-623,81	290,81
-621,41	258,04
-619,01	204,80
-616,61	239,61
-614,21	335,87
-611,81	237,56
-609,42	208,89
-607,02	346,11
-604,63	165,89
-602,23	151,55
-599,84	208,89
-597,45	206,84
-595,05	215,04
-592,66	329,72
-590,27	249,85
-587,88	26,62
-585,50	227,32
-583,11	45,06
-580,72	192,51
-578,34	98,30
-575,95	135,17
-573,57	131,07
-571,19	186,37
-568,80	186,37
-566,42	186,37
-564,04	305,15
-561,66	43,01
-559,29	81,92
-556,91	122,88
-554,53	104,45
-552,16	256,00
-549,78	225,28
-547,41	18,43
-545,03	202,75
-542,66	34,82
-540,29	239,61
-537,92	120,83
-535,55	51,20
-533,18	296,96
-530,81	149,50
-528,45	147,45
-526,08	210,94
-523,72	122,88
-521,35	221,18
-518,99	163,84
-516,63	122,88
-514,27	149,50
-511,90	266,24
-509,54	290,81
-507,19	155,65
-504,83	260,09
-502,47	167,93
-500,11	231,42
-497,76	288,76
-495,40	241,66
-493,05	227,32
-490,70	227,32
-488,35	141,31
-486,00	133,12
-483,65	231,42
-481,30	159,74
-478,95	172,03
-476,60	77,82
-474,25	139,26
-471,91	210,94
-469,56	210,94
-467,22	268,28
-464,88	149,50
-462,53	145,41
-460,19	317,44
-457,85	303,10
-455,51	159,74
-453,17	174,08
-450,84	147,45
-448,50	169,98
-446,16	223,23
-443,83	245,76
-441,49	188,41
-439,16	225,28
-436,83	215,04
-434,50	118,78
-432,16	145,41
-429,83	223,23
-427,50	8,19
-425,18	47,10
-422,85	126,97
-420,52	129,02
-418,20	157,69
-415,87	69,63
-413,55	210,94
-411,22	88,06
-408,90	108,54
-406,58	18,43
-404,26	40,96
-401,94	30,72
-399,62	61,44
-397,30	47,10
-394,99	-8,19
-392,67	75,77
-390,35	18,43
-388,04	-92,16
-385,73	55,30
-383,41	24,58
-381,10	-75,77
-378,79	110,59
-376,48	61,44
-374,17	12,29
-371,86	38,91
-369,55	38,91
-367,25	135,17
-364,94	26,62
-362,64	-98,30
-360,33	-79,87
-358,03	0,00
-355,73	94,21
-353,42	149,50
-351,12	100,35
-348,82	28,67
-346,52	94,21
-344,23	145,41
-341,93	2,05
-339,63	59,39
-337,34	86,01
-335,04	-14,34
-332,75	159,74
-330,45	-30,72
-328,16	-28,67
-325,87	-30,72
-323,58	112,64
-321,29	-14,34
-319,00	94,21
-316,71	24,58
-314,42	-49,15
-312,14	77,82
-309,85	-73,73
-307,57	-32,77
-305,28	-81,92
-303,00	8,19
-300,72	-30,72
-298,44	-32,77
-296,16	-4,10
-293,88	-133,12
-291,60	75,77
-289,32	53,25
-287,04	36,86
-284,77	24,58
-282,49	38,91
-280,22	-49,15
-277,94	-49,15
-275,67	6,14
-273,40	24,58
-271,13	-65,53
-268,85	-32,77
-266,59	167,93
-264,32	-34,82
-262,05	2,05
-259,78	-57,34
-257,51	22,53
-255,25	4,10
-252,98	30,72
-250,72	14,34
-248,46	83,97
-246,20	6,14
-243,93	-86,01
-241,67	2,05
-239,41	71,68
-237,16	6,14
-234,90	47,10
-232,64	-65,53
-230,38	-75,77
-228,13	-61,44
-225,87	-20,48
-223,62	-88,06
-221,37	53,25
-219,11	36,86
-216,86	45,06
-214,61	8,19
-212,36	96,25
-210,11	16,38
-207,87	-22,53
-205,62	34,82
-203,37	-47,10
-201,13	-6,14
-198,88	-22,53
-196,64	-8,19
-194,39	63,49
-192,15	108,54
-189,91	106,49
-187,67	-96,25
-185,43	106,49
-183,19	94,21
-180,95	6,14
-178,72	43,01
-176,48	14,34
-174,24	135,17
-172,01	-45,06
-169,77	116,73
-167,54	47,10
-165,31	-32,77
-163,08	36,86
-160,85	8,19
-158,62	6,14
-156,39	-2,05
-154,16	77,82
-151,93	86,01
-149,70	14,34
-147,48	-40,96
-145,25	18,43
-143,03	51,20
-140,81	-53,25
-138,58	14,34
-136,36	0,00
-134,14	79,87
-131,92	10,24
-129,70	83,97
-127,48	32,77
-125,26	14,34
-123,05	-8,19
-120,83	-18,43
-118,62	-53,25
-116,40	-10,24
-114,19	-67,58
-111,97	-65,53
-109,76	2,05
-107,55	65,53
-105,34	30,72
-103,13	22,53
-100,92	124,93
-98,71	94,21
-96,51	45,06
-94,30	110,59
-92,09	81,92
-89,89	104,45
-87,69	-40,96
-85,48	65,54
-83,28	122,88
-81,08	-55,30
-78,88	-30,72
-76,68	26,62
-74,48	100,35
-72,28	67,58
-70,08	28,67
-67,88	-49,15
-65,69	157,69
-63,49	26,62
-61,30	90,11
-59,11	28,67
-56,91	49,15
-54,72	53,25
-52,53	90,11
-50,34	258,04
-48,15	22,53
-45,96	-8,19
-43,77	36,86
-41,59	77,82
-39,40	53,25
-37,21	124,93
-35,03	145,41
-32,84	71,68
-30,66	215,04
-28,48	114,69
-26,30	196,61
-24,12	536,57
-21,94	1005,55
-19,76	1654,76
-17,58	3598,28
-15,40	6762,39
-13,22	12070,73
-11,05	15333,14
-8,87	19515,09
-6,70	23223,97
-4,52	27412,06
-2,35	27655,77
-0,18	31094,31
1,99	28112,47
4,16	28053,08
6,33	23260,83
8,50	19732,18
10,67	16332,55
12,84	14081,83
15,00	11933,51
17,17	9930,60
19,33	8284,03
21,50	6752,15
23,66	5097,39
25,83	3948,48
27,99	2686,93
30,15	1771,49
32,31	1112,05
34,47	770,04
36,63	438,27
38,79	421,88
40,94	116,73
43,10	200,70
45,25	90,11
47,41	229,37
49,56	0,00
51,72	106,49
53,87	86,01
56,02	186,37
58,17	45,06
60,32	161,79
62,47	45,06
64,62	100,35
66,77	16,38
68,92	-6,14
71,06	88,06
73,21	131,07
75,35	94,21
77,50	98,30
79,64	215,04
81,78	36,86
83,92	102,40
86,06	90,11
88,20	110,59
90,34	169,98
92,48	241,66
94,62	309,24
96,76	397,31
98,89	393,21
101,03	407,55
103,16	450,55
105,30	608,25
107,43	796,66
109,56	741,36
111,69	792,56
113,82	1157,10
115,95	1308,65
118,08	1447,91
120,21	1533,93
122,34	1497,07
124,47	1785,83
126,59	1781,73
128,72	1853,41
130,84	2111,46
132,97	1986,53
135,09	2267,10
137,21	2451,42
139,33	2287,58
141,45	2586,58
143,57	2398,17
145,69	2475,99
147,81	2648,02
149,93	2707,41
152,05	2615,26
154,16	2662,36
156,28	2635,74
158,39	2580,44
160,51	2447,32
162,62	2525,15
164,73	2475,99
166,85	2426,84
168,96	2150,37
171,07	2258,91
173,18	2095,07
175,28	2189,28
177,39	1982,43
179,50	2097,12
181,61	1851,36
183,71	1898,47
185,82	1857,51
187,92	1998,82
190,02	1918,95
192,13	1753,06
194,23	1523,69
196,33	1591,27
198,43	1509,35
200,53	1566,70
202,63	1550,31
204,72	1480,68
206,82	1445,87
208,92	1546,22
211,01	1277,93
213,11	1394,67
215,20	1138,67
217,30	1411,05
219,39	1312,75
221,48	1236,97
223,57	1161,20
225,66	1171,44
227,75	1191,92
229,84	1126,38
231,93	1142,77
234,02	1153,01
236,10	1153,01
238,19	1163,25
240,28	1226,73
242,36	1146,86
244,44	1187,82
246,53	1202,16
248,61	997,36
250,69	1023,98
252,77	940,02
254,85	958,45
256,93	1130,48
259,01	1030,13
261,09	942,07
263,16	1009,65
265,24	1079,28
267,32	1064,94
269,39	1054,70
271,46	1134,57
273,54	1017,84
275,61	1083,38
277,68	1023,98
279,75	1105,90
281,82	894,96
283,89	999,41
285,96	972,79
288,03	901,11
290,10	925,68
292,16	1081,33
294,23	1005,55
296,29	1083,38
298,36	1226,73
300,42	1028,08
302,49	960,50
304,55	1073,14
306,61	1064,94
308,67	935,92
310,73	1083,38
312,79	1046,51
314,85	1038,32
316,90	1153,01
318,96	1116,14
321,02	1099,76
323,07	1118,19
325,13	1077,23
327,18	888,82
329,24	976,88
331,29	993,26
333,34	999,41
335,39	1091,57
337,44	1071,09
339,49	1056,75
341,54	976,88
343,59	1163,25
345,64	1083,38
347,68	925,68
349,73	1019,89
351,77	1052,66
353,82	1124,33
355,86	987,12
357,90	1056,75
359,95	1132,53
361,99	1040,37
364,03	1161,20
366,07	1058,80
368,11	915,44
370,15	1107,95
372,19	991,22
374,22	1273,84
376,26	1214,45
378,29	1095,66
380,33	1120,24
382,36	1114,09
384,40	1261,55
386,43	1302,51
388,46	1302,51
390,49	1351,66
392,52	1175,53
394,55	1320,94
396,58	1234,93
398,61	1335,28
400,64	1220,59
402,67	1363,95
404,69	1388,52
406,72	1468,39
408,74	1368,04
410,77	1288,17
412,79	1306,60
414,81	1279,98
416,84	1247,21
418,86	1374,19
420,88	1196,01
422,90	1159,15
424,92	1251,31
426,94	1284,08
428,95	1343,47
430,97	1304,56
432,99	1292,27
435,00	1208,30
437,02	1130,48
439,03	1062,90
441,04	1134,57
443,06	1202,16
445,07	1193,97
447,08	1226,73
449,09	1114,09
451,10	1230,83
453,11	1187,82
455,12	1269,74
457,13	1122,29
459,13	1064,94
461,14	1337,32
463,14	1124,33
465,15	1101,81
467,15	1230,83
469,16	1107,95
471,16	1245,17
473,16	1247,21
475,16	1138,67
477,16	1163,25
479,16	1357,80
481,16	1157,10
483,16	1257,45
485,16	1292,27
487,15	1406,95
489,15	1339,37
491,15	1069,04
493,14	1060,85
495,14	1259,50
497,13	1118,19
499,12	1271,79
501,11	1122,29
503,11	1198,06
505,10	1265,64
507,09	1144,81
509,07	1159,15
511,06	1083,38
513,05	1058,80
515,04	1196,01
517,02	1124,33
519,01	1304,56
521,00	1075,18
522,98	1167,34
524,96	1116,14
526,95	1175,53
528,93	1128,43
530,91	1284,08
532,89	1220,59
534,87	1245,16
536,85	1107,95
538,83	1245,16
540,81	1183,73
542,78	1214,45
544,76	1267,69
546,74	1189,87
548,71	1282,03
550,69	1150,96
552,66	1132,53
554,63	1341,42
556,60	1261,55
558,58	1019,89
560,55	1181,68
562,52	1300,46
564,49	1234,93
566,46	1310,70
568,42	1288,17
570,39	1353,71
572,36	1116,14
574,32	1376,24
576,29	1267,69
578,25	1425,39
580,22	1314,80
582,18	1331,18
584,14	1355,76
586,11	1239,02
588,07	1533,93
590,03	1478,63
591,99	1617,90
593,95	1972,19
595,90	2385,88
597,86	2611,16
599,82	3000,27
601,78	3364,81
603,73	3620,81
605,69	3733,45
607,64	3848,13
609,59	3665,86
611,55	3569,61
613,50	3405,77
615,45	3233,74
617,40	2824,15
619,35	2463,71
621,30	2203,61
623,25	2279,39
625,20	1851,36
627,15	1886,18
629,09	1814,50
631,04	1605,61
632,98	1757,16
634,93	1486,83
636,87	1570,79
638,82	1417,19
640,76	1353,71
642,70	1351,66
644,64	1472,49
646,58	1400,81
648,52	1296,36
650,46	1245,16
652,40	1228,78
654,34	1236,97
656,27	1236,97
658,21	1210,35
660,15	1454,06
662,08	1296,36
664,02	1419,24
665,95	1400,81
667,88	1331,18
669,82	1341,42
671,75	1331,18
673,68	1245,16
675,61	1359,85
677,54	1306,60
679,47	1382,38
681,40	1320,94
683,32	1335,28
685,25	1384,43
687,18	1409,00
689,10	1306,60
691,03	1370,09
692,95	1140,72
694,87	1402,86
696,80	1466,35
698,72	1398,76
700,64	1290,22
702,56	1298,41
704,48	1316,84
706,40	1325,04
708,32	1185,77
710,24	1265,64
712,16	1196,01
714,07	1148,91
715,99	1105,90
717,90	1271,79
719,82	1292,27
721,73	1257,45
723,65	974,83
725,56	1224,69
727,47	1376,24
729,38	1224,69
731,29	1349,61
733,20	1347,56
735,11	1198,06
737,02	1261,55
738,93	1142,77
740,84	1273,84
742,74	1189,87
744,65	1286,12
746,55	1206,25
748,46	1325,04
750,36	1427,43
752,27	1353,71
754,17	1263,60
756,07	1388,52
757,97	1296,36
759,87	1232,88
761,77	1177,58
763,67	1251,31
765,57	1222,64
767,47	1234,93
769,37	1202,16
771,26	1329,13
773,16	1224,69
775,06	1382,38
776,95	1316,84
778,84	1292,27
780,74	1157,10
782,63	1339,37
784,52	1284,08
786,41	1460,20
788,30	1366,00
790,19	1286,12
792,08	1411,05
793,97	1409,00
795,86	1462,25
797,75	1525,74
799,63	1480,68
801,52	1376,24
803,41	1550,31
805,29	1630,18
807,18	1474,54
809,06	1429,48
810,94	1423,34
812,82	1646,57
814,70	1490,92
816,59	1550,31
818,47	1464,30
820,35	1468,39
822,22	1513,45
824,10	1441,77
825,98	1363,95
827,86	1615,85
829,73	1576,94
831,61	1374,19
833,48	1470,44
835,36	1636,33
837,23	1505,26
839,10	1642,47
840,98	1716,20
842,85	1824,74
844,72	1869,80
846,59	1789,92
848,46	1871,84
850,33	1918,95
852,20	1900,52
854,06	1970,15
855,93	1933,28
857,80	1943,52
859,66	1863,65
861,53	1689,57
863,39	1628,14
865,26	1615,85
867,12	1570,79
868,98	1595,37
870,84	1521,64
872,71	1460,20
874,57	1447,91
876,43	1574,89
878,29	1441,77
880,14	1114,09
882,00	1411,05
883,86	1196,01
885,72	1484,78
887,57	1429,48
889,43	1441,77
891,28	1378,28
893,14	1437,67
894,99	1462,25
896,84	1505,26
898,69	1486,83
900,55	1388,52
902,40	1449,96
904,25	1359,85
906,10	1292,27
907,95	1454,06
909,79	1363,95
911,64	1316,84
913,49	1443,82
915,34	1169,39
917,18	1411,05
919,03	1249,26
920,87	1566,70
922,71	1316,84
924,56	1372,14
926,40	1343,47
928,24	1492,97
930,08	1439,72
931,92	1378,28
933,76	1601,51
935,60	1644,52
937,44	1523,69
939,28	1476,59
941,12	1535,98
942,95	1515,50
944,79	1673,19
946,62	1638,38
948,46	1482,73
950,29	1648,61
952,13	1746,92
953,96	1695,72
955,79	1722,34
957,62	1703,91
959,46	1785,83
961,29	1970,15
963,12	2150,37
964,94	2322,40
966,77	2731,99
968,60	3067,86
970,43	3725,26
972,25	4564,92
974,08	5605,29
975,91	7264,15
977,73	9179,00
979,55	13000,51
981,38	18931,42
983,20	26898,02
985,02	38266,30
986,84	47527,21
988,66	53064,92
990,49	58029,19
992,30	60044,40
994,12	60050,54
995,94	60355,69
997,76	54363,33
999,58	48280,86
1001,39	39249,32
1003,21	32140,82
1005,02	26672,75
1006,84	21620,41
1008,65	16748,29
1010,47	12873,53
1012,28	9809,77
1014,09	7505,81
1015,90	5445,55
1017,71	4411,32
1019,52	3512,27
1021,33	2932,69
1023,14	2648,02
1024,95	2248,67
1026,76	2119,65
1028,56	2070,50
1030,37	1804,26
1032,18	1845,22
1033,98	1966,05
1035,79	1589,22
1037,59	1712,10
1039,39	1691,62
1041,20	1705,96
1043,00	1480,68
1044,80	1587,18
1046,60	1542,12
1048,40	1464,30
1050,20	1521,64
1052,00	1542,12
1053,80	1656,81
1055,59	1402,86
1057,39	1480,68
1059,19	1460,20
1060,98	1630,18
1062,78	1363,95
1064,57	1312,75
1066,37	1484,78
1068,16	1482,73
1069,95	1583,08
1071,75	1361,90
1073,54	1363,95
1075,33	1505,26
1077,12	1531,88
1078,91	1595,37
1080,70	1609,70
1082,48	1468,39
1084,27	1359,85
1086,06	1617,90
1087,85	1368,04
1089,63	1366,00
1091,42	1681,38
1093,20	1447,91
1094,99	1345,52
1096,77	1560,55
1098,55	1345,52
1100,33	1329,13
1102,12	1435,63
1103,90	1431,53
1105,68	1441,77
1107,46	1464,30
1109,24	1552,36
1111,01	1443,82
1112,79	1353,71
1114,57	1390,57
1116,35	1431,53
1118,12	1286,12
1119,90	1335,28
1121,67	1443,82
1123,45	1554,41
1125,22	1370,09
1126,99	1638,38
1128,77	1284,08
1130,54	1484,78
1132,31	1488,87
1134,08	1445,87
1135,85	1646,57
1137,62	1560,55
1139,39	1634,28
1141,15	1716,20
1142,92	1781,73
1144,69	1679,33
1146,46	1656,81
1148,22	1722,34
1149,99	1818,60
1151,75	1859,56
1153,51	1794,02
1155,28	2027,49
1157,04	2033,63
1158,80	2082,78
1160,56	2248,67
1162,32	2240,48
1164,08	2564,06
1165,84	2942,93
1167,60	3135,44
1169,36	3661,77
1171,12	3839,94
1172,88	4237,25
1174,63	4345,79
1176,39	4804,53
1178,14	4661,18
1179,90	4712,38
1181,65	4448,19
1183,41	4460,48
1185,16	4042,69
1186,91	3885,00
1188,66	3512,27
1190,41	3117,01
1192,16	2752,47
1193,91	2617,30
1195,66	2406,36
1197,41	2346,97
1199,16	2195,42
1200,91	2015,20
1202,66	2050,02
1204,40	1851,36
1206,15	1783,78
1207,89	1882,08
1209,64	1675,24
1211,38	1626,09
1213,12	1632,23
1214,87	1681,38
1216,61	1638,38
1218,35	1656,81
1220,09	1554,41
1221,83	1349,61
1223,57	1474,54
1225,31	1411,05
1227,05	1665,00
1228,79	1443,82
1230,52	1499,11
1232,26	1337,32
1234,00	1548,26
1235,73	1234,93
1237,47	1253,36
1239,20	1464,30
1240,94	1474,54
1242,67	1474,54
1244,40	1198,06
1246,13	1333,23
1247,86	1458,15
1249,60	1298,41
1251,33	1421,29
1253,06	1300,46
1254,78	1257,45
1256,51	1355,76
1258,24	1355,76
1259,97	1269,74
1261,69	1257,45
1263,42	1462,25
1265,15	1423,34
1266,87	1423,34
1268,59	1325,04
1270,32	1480,68
1272,04	1384,43
1273,76	1286,12
1275,49	1384,43
1277,21	1251,31
1278,93	1409,00
1280,65	1257,45
1282,37	1374,19
1284,09	1247,21
1285,81	1325,04
1287,52	1374,19
1289,24	1294,32
1290,96	1361,90
1292,67	1239,02
1294,39	1382,38
1296,10	1196,01
1297,82	1345,52
1299,53	1329,13
1301,24	1337,32
1302,96	1220,59
1304,67	1304,56
1306,38	1314,80
1308,09	1394,67
1309,80	1382,38
1311,51	1300,46
1313,22	1349,61
1314,93	1312,75
1316,64	1347,56
1318,34	1384,43
1320,05	1454,06
1321,75	1441,77
1323,46	1255,40
1325,17	1333,23
1326,87	1304,56
1328,57	1366,00
1330,28	1279,98
1331,98	1163,25
1333,68	1318,89
1335,38	1275,88
1337,08	1325,04
1338,78	1515,50
1340,48	1263,60
1342,18	1406,95
1343,88	1449,96
1345,58	1437,67
1347,28	1275,88
1348,97	1570,79
1350,67	1157,10
1352,36	1419,24
1354,06	1388,52
1355,75	1368,04
1357,45	1357,80
1359,14	1374,19
1360,83	1366,00
1362,53	1331,18
1364,22	1394,67
1365,91	1257,45
1367,60	1249,26
1369,29	1267,69
1370,98	1398,76
1372,67	1456,11
1374,35	1443,82
1376,04	1417,19
1377,73	1390,57
1379,41	1415,15
1381,10	1439,72
1382,79	1470,44
1384,47	1351,66
1386,15	1316,84
1387,84	1316,84
1389,52	1435,63
1391,20	1257,45
1392,88	1384,43
1394,57	1341,42
1396,25	1372,14
1397,93	1605,61
1399,61	1441,77
1401,28	1400,81
1402,96	1578,98
1404,64	1503,21
1406,32	1613,80
1407,99	1660,90
1409,67	1540,07
1411,35	1411,05
1413,02	1460,20
1414,70	1443,82
1416,37	1333,23
1418,04	1277,93
1419,71	1378,28
1421,39	1239,02
1423,06	1335,28
1424,73	1343,47
1426,40	1318,89
1428,07	1314,80
1429,74	1445,87
1431,41	1210,35
1433,08	1390,57
1434,74	1327,08
1436,41	1466,35
1438,08	1179,63
1439,74	1343,47
1441,41	1226,73
1443,07	1150,96
1444,74	1042,42
1446,40	1347,56
1448,06	1222,64
1449,72	1292,27
1451,39	1306,60
1453,05	1286,12
1454,71	1378,28
1456,37	1159,15
1458,03	1302,51
1459,69	1216,49
1461,35	1384,43
1463,00	1456,11
1464,66	1210,35
1466,32	1284,08
1467,97	1347,56
1469,63	1433,58
1471,28	1366,00
1472,94	1351,66
1474,59	1361,90
1476,25	1300,46
1477,90	1361,90
1479,55	1628,14
1481,20	1310,70
1482,85	1409,00
1484,50	1609,70
1486,15	1279,98
1487,80	1452,01
1489,45	1380,33
1491,10	1263,60
1492,75	1327,08
1494,40	1355,76
1496,04	1138,67
1497,69	1271,79
1499,33	1130,48
1500,98	1388,52
1502,62	1390,57
1504,27	1232,88
1505,91	1320,94
1507,55	1374,19
1509,19	1300,46
1510,84	1220,59
1512,48	1314,80
1514,12	1316,84
1515,76	1247,21
1517,40	1155,05
1519,04	1292,27
1520,67	1400,81
1522,31	1181,68
1523,95	1333,23
1525,59	1392,62
1527,22	1259,50
1528,86	1454,06
1530,49	1279,98
1532,13	1345,52
1533,76	1339,37
1535,39	1298,41
1537,03	1480,68
1538,66	1382,38
1540,29	1497,07
1541,92	1251,31
1543,55	1386,47
1545,18	1374,19
1546,81	1363,95
1548,44	1402,86
1550,07	1370,09
1551,70	1677,29
1553,32	1513,45
1554,95	1558,50
1556,58	1462,25
1558,20	1732,58
1559,83	1679,33
1561,45	1607,66
1563,07	1634,28
1564,70	1791,97
1566,32	1763,30
1567,94	1849,32
1569,56	2021,35
1571,19	2164,70
1572,81	2306,01
1574,43	2519,00
1576,05	2584,54
1577,66	2904,02
1579,28	3100,62
1580,90	3342,28
1582,52	3542,99
1584,14	3649,48
1585,75	3690,44
1587,37	3887,04
1588,98	3727,30
1590,60	3934,15
1592,21	3542,99
1593,82	3721,16
1595,44	3450,83
1597,05	3473,35
1598,66	3336,14
1600,27	3338,19
1601,88	3309,52
1603,49	3514,31
1605,10	3260,37
1606,71	3282,89
1608,32	3002,32
1609,93	3198,93
1611,54	2949,08
1613,14	2885,59
1614,75	2699,22
1616,36	2650,07
1617,96	2373,60
1619,57	2160,61
1621,17	2205,66
1622,77	2068,45
1624,38	1910,75
1625,98	1791,97
1627,58	1734,63
1629,18	1791,97
1630,78	1617,90
1632,38	1773,54
1633,98	1517,54
1635,58	1517,54
1637,18	1370,09
1638,78	1552,36
1640,38	1710,05
1641,98	1546,22
1643,57	1583,08
1645,17	1366,00
1646,76	1374,19
1648,36	1486,83
1649,95	1302,51
1651,55	1433,58
1653,14	1425,39
1654,73	1449,96
1656,33	1279,98
1657,92	1439,72
1659,51	1353,71
1661,10	1337,32
1662,69	1308,65
1664,28	1411,05
1665,87	1351,66
1667,46	1337,32
1669,05	1368,04
1670,63	1284,08
1672,22	1294,32
1673,81	1249,26
1675,39	1339,37
1676,98	1300,46
1678,56	1363,95
1680,15	1333,23
1681,73	1136,62
1683,31	1191,92
1684,90	1279,98
1686,48	1222,64
1688,06	1378,28
1689,64	1351,66
1691,22	1392,62
1692,80	1327,08
1694,38	1449,96
1695,96	1366,00
1697,54	1413,10
1699,12	1335,28
1700,69	1386,47
1702,27	1337,32
1703,85	1269,74
1705,42	1320,94
1707,00	1234,93
1708,57	1298,41
1710,15	1345,52
1711,72	1167,34
1713,29	1255,40
1714,87	1466,35
1716,44	1300,46
1718,01	1406,95
1719,58	1089,52
1721,15	1103,86
1722,72	1388,52
1724,29	1193,97
1725,86	1163,25
1727,43	1173,49
1729,00	1122,29
1730,56	1216,49
1732,13	1363,95
1733,70	1269,74
1735,26	1089,52
1736,83	1296,36
1738,39	1122,29
1739,96	1095,66
1741,52	1239,02
1743,08	1099,76
1744,65	1253,36
1746,21	1177,58
1747,77	1204,21
1749,33	1224,69
1750,89	1282,03
1752,45	1200,11
1754,01	1249,26
1755,57	1292,27
1757,13	1064,94
1758,69	1120,24
1760,24	1337,32
1761,80	1247,21
1763,36	1239,02
1764,91	1355,76
1766,47	1288,17
1768,02	1183,73
1769,58	1325,04
1771,13	1214,45
1772,68	1155,05
1774,24	1183,73
1775,79	1214,45
1777,34	1046,51
1778,89	1218,54
1780,44	1161,20
1781,99	1163,25
1783,54	1300,46
1785,09	1089,52
1786,64	1097,71
1788,19	1185,77
1789,73	1212,40
1791,28	1347,56
1792,83	1216,49
1794,37	1165,29
1795,92	1314,80
1797,46	1169,39
1799,01	1241,07
1800,55	1167,34
1802,09	1066,99
1803,64	1130,48
1805,18	1396,71
1806,72	1300,46
1808,26	1208,30
1809,80	1161,20
1811,34	1259,50
1812,88	1169,39
1814,42	1245,17
1815,96	1159,15
1817,50	1167,34
1819,04	1144,81
1820,57	1257,45
1822,11	1224,69
1823,65	1224,69
1825,18	1083,38
1826,72	1236,97
1828,25	1222,64
1829,78	1185,77
1831,32	1224,69
1832,85	1161,20
1834,38	1286,12
1835,92	1255,40
1837,45	1165,29
1838,98	1310,70
1840,51	1128,43
1842,04	1302,51
1843,57	1210,35
1845,10	1398,76
1846,62	1198,06
1848,15	1255,40
1849,68	1099,76
1851,21	1519,59
1852,73	1390,57
1854,26	1136,62
1855,78	1206,25
1857,31	1140,72
1858,83	1267,69
1860,36	1261,55
1861,88	1249,26
1863,40	1171,44
1864,92	1130,48
1866,45	1226,73
1867,97	1060,85
1869,49	1257,45
1871,01	1167,34
1872,53	1337,32
1874,05	1165,29
1875,57	1208,30
1877,08	1155,05
1878,60	1253,36
1880,12	1218,54
1881,64	995,31
1883,15	1193,97
1884,67	1140,72
1886,18	1163,25
1887,70	1161,20
1889,21	1177,58
1890,72	1198,06
1892,24	1077,23
1893,75	1210,35
1895,26	1128,43
1896,77	1069,04
1898,28	1081,33
1899,79	1198,06
1901,30	1075,18
1902,81	1107,95
1904,32	1218,54
1905,83	1255,40
1907,34	1054,70
1908,85	1196,01
1910,35	1093,62
1911,86	1253,36
1913,37	1241,07
1914,87	1114,10
1916,38	1034,22
1917,88	1220,59
1919,39	1236,97
1920,89	1202,16
1922,39	1169,39
1923,89	1263,60
1925,40	1101,81
1926,90	1185,77
1928,40	1337,32
1929,90	1155,05
1931,40	1265,64
1932,90	1320,94
1934,40	1187,82
1935,90	1161,20
1937,39	1208,30
1938,89	1363,95
1940,39	1122,29
1941,89	1255,40
1943,38	1144,81
1944,88	1329,13
1946,37	1273,84
1947,87	1105,90
1949,36	1066,99
1950,85	1077,23
1952,35	1095,66
1953,84	1161,20
1955,33	1177,58
1956,82	1245,16
1958,31	1038,32
1959,80	1103,86
1961,29	1091,57
1962,78	1331,18
1964,27	1142,77
1965,76	1173,49
1967,25	1222,64
1968,74	1249,26
1970,22	1171,44
1971,71	1097,71
1973,20	1044,46
1974,68	1085,42
1976,17	1239,02
1977,65	1185,77
1979,14	1126,38
1980,62	1296,36
1982,10	1282,03
1983,58	1169,39
1985,07	1099,76
1986,55	1204,21
1988,03	1222,64
1989,51	1241,07
1990,99	1167,34
1992,47	1107,95
1993,95	1105,90
1995,43	1263,60
1996,91	1173,49
1998,38	1300,46
1999,86	1347,56
2001,34	1040,37
2002,81	1136,62
2004,29	1234,93
2005,76	1171,44
2007,24	1163,25
2008,71	993,26
2010,19	1146,86
2011,66	1126,38
2013,13	1210,35
2014,60	1071,09
2016,08	1048,56
2017,55	1228,78
2019,02	1073,14
2020,49	1222,64
2021,96	1198,06
2023,43	1091,57
2024,90	1167,34
2026,36	1177,58
2027,83	1062,90
2029,30	1134,57
2030,77	1191,92
2032,23	1099,76
2033,70	1150,96
2035,16	1087,47
2036,63	1032,18
2038,09	1161,20
2039,56	1075,18
2041,02	1267,69
2042,48	1146,86
2043,95	1259,50
2045,41	1079,28
2046,87	1181,68
2048,33	1114,09
2049,79	1050,61
2051,25	1081,33
2052,71	1028,08
2054,17	1136,62
2055,63	980,98
2057,09	978,93
2058,54	1193,97
2060,00	1103,86
2061,46	1075,18
2062,91	1150,96
2064,37	1128,43
2065,82	1058,80
2067,28	1089,52
2068,73	1142,77
2070,19	1110,00
2071,64	1220,59
2073,09	1183,73
2074,54	1200,11
2076,00	1114,09
2077,45	1097,71
2078,90	1208,30
2080,35	1165,29
2081,80	1050,61
2083,25	1044,46
2084,70	1042,42
2086,14	1073,14
2087,59	1091,57
2089,04	1101,81
2090,49	1007,60
2091,93	1005,55
2093,38	942,07
2094,83	991,22
2096,27	1075,18
2097,71	1296,36
2099,16	1101,81
2100,60	985,07
2102,05	1003,50
2103,49	1101,81
2104,93	1124,33
2106,37	1189,87
2107,81	1011,70
2109,25	1138,67
2110,69	1073,14
2112,13	1112,05
2113,57	1077,23
2115,01	1259,50
2116,45	1136,62
2117,89	1161,20
2119,33	1097,71
2120,76	1226,73
2122,20	1017,84
2123,63	1089,52
2125,07	1208,30
2126,51	1066,99
2127,94	1056,75
2129,37	1071,09
2130,81	1026,03
2132,24	1138,67
2133,67	970,74
2135,11	1208,30
2136,54	1097,71
2137,97	978,93
2139,40	1062,90
2140,83	1146,86
2142,26	1056,75
2143,69	1136,62
2145,12	1234,93
2146,55	1050,61
2147,97	1101,81
2149,40	1058,80
2150,83	1107,95
2152,25	1077,23
2153,68	880,63
2155,11	1185,77
2156,53	983,03
2157,96	1134,57
2159,38	1148,91
2160,80	1034,22
2162,23	1116,14
2163,65	1128,43
2165,07	976,88
2166,49	1126,38
2167,91	958,45
2169,33	1077,23
2170,75	1093,62
2172,17	1171,44
2173,59	1032,18
2175,01	931,83
2176,43	1087,47
2177,85	1193,97
2179,27	1036,27
2180,68	1126,38
2182,10	1056,75
2183,52	1030,13
2184,93	1071,09
2186,35	1134,57
2187,76	1026,03
2189,18	1214,45
2190,59	1200,11
2192,00	1161,20
2193,42	1097,71
2194,83	1118,19
2196,24	1089,52
2197,65	1159,15
2199,06	1081,33
2200,47	1064,94
2201,88	1044,46
2203,29	1085,42
2204,70	1124,33
2206,11	1112,05
2207,52	1054,70
2208,93	1030,13
2210,33	985,07
2211,74	1210,35
2213,15	1148,91
2214,55	1210,35
2215,96	1058,80
2217,36	1060,85
2218,77	1095,66
2220,17	1134,57
2221,57	1081,33
2222,98	1144,81
2224,38	980,98
2225,78	1210,35
2227,18	1146,86
2228,58	1009,65
2229,99	937,97
2231,39	1005,55
2232,79	1110,00
2234,18	1069,04
2235,58	944,11
2236,98	962,55
2238,38	870,39
2239,78	1030,13
2241,17	1034,22
2242,57	1034,22
2243,97	1007,60
2245,36	978,93
2246,76	1019,89
2248,15	919,54
2249,55	1030,13
2250,94	1009,65
2252,33	1009,65
2253,73	1091,57
2255,12	907,25
2256,51	1034,22
2257,90	903,15
2259,29	966,64
2260,68	1034,22
2262,07	989,17
2263,46	1054,70
2264,85	1163,25
2266,24	907,25
2267,63	1085,42
2269,02	942,07
2270,40	1011,70
2271,79	1046,51
2273,18	923,63
2274,56	905,20
2275,95	983,03
2277,33	1095,66
2278,72	1005,55
2280,10	1110,00
2281,49	983,03
2282,87	985,07
2284,25	952,31
2285,63	1011,70
2287,02	1042,42
2288,40	917,49
2289,78	933,87
2291,16	1118,19
2292,54	1013,74
2293,92	1150,96
2295,30	1153,01
2296,68	1181,68
2298,05	1296,36
2299,43	1130,48
2300,81	1110,00
2302,19	894,96
2303,56	1042,42
2304,94	1036,27
2306,31	1026,03
2307,69	1071,09
2309,06	1077,23
2310,44	1044,46
2311,81	1095,66
2313,19	1017,84
2314,56	1089,52
2315,93	1062,90
2317,30	1095,66
2318,67	1007,60
2320,04	1097,71
2321,41	917,49
2322,78	954,35
2324,15	1028,08
2325,52	1001,46
2326,89	944,11
2328,26	964,59
2329,63	849,91
2331,00	901,11
2332,36	948,21
2333,73	841,72
2335,09	1093,62
2336,46	972,79
2337,83	974,83
2339,19	968,69
2340,55	894,96
2341,92	968,69
2343,28	966,64
2344,64	1040,37
2346,01	987,12
2347,37	1026,03
2348,73	931,83
2350,09	1026,03
2351,45	950,26
2352,81	987,12
2354,17	3676,10
2355,53	849,91
2356,89	1060,85
2358,25	940,02
2359,61	1081,33
2360,96	1153,01
2362,32	915,44
2363,68	978,93
2365,03	987,12
2366,39	1066,99
2367,74	884,72
2369,10	1099,76
2370,45	937,97
2371,81	1052,66
2373,16	1038,32
2374,51	987,12
2375,86	1017,84
2377,22	1267,69
2378,57	1089,52
2379,92	985,07
2381,27	1017,84
2382,62	1038,32
2383,97	1044,46
2385,32	933,87
2386,67	972,79
2388,02	978,93
2389,37	940,02
2390,71	987,12
2392,06	962,55
2393,41	995,31
2394,75	1028,08
2396,10	1036,27
2397,44	927,73
2398,79	1052,66
2400,13	913,39
2401,48	921,59
2402,82	1007,60
2404,17	872,43
2405,51	1146,86
2406,85	919,54
2408,19	968,69
2409,53	1011,70
2410,87	872,43
2412,22	964,59
2413,56	913,39
2414,89	940,02
2416,23	991,22
2417,57	1007,60
2418,91	1079,28
2420,25	1017,84
2421,59	886,77
2422,92	876,53
2424,26	937,97
2425,60	1062,90
2426,93	872,43
2428,27	983,02
2429,60	991,22
2430,94	870,39
2432,27	903,15
2433,60	978,93
2434,94	1007,60
2436,27	1038,32
2437,60	937,97
2438,93	1081,33
2440,27	960,50
2441,60	837,62
2442,93	813,04
2444,26	1083,38
2445,59	874,48
2446,92	1034,22
2448,24	950,26
2449,57	933,87
2450,90	849,91
2452,23	1142,77
2453,55	1071,09
2454,88	1140,72
2456,21	1171,44
2457,53	1222,64
2458,86	1120,24
2460,18	1198,06
2461,51	1316,84
2462,83	1069,04
2464,15	1200,11
2465,48	1011,70
2466,80	1046,51
2468,12	1163,25
2469,44	989,17
2470,76	983,03
2472,09	899,06
2473,41	999,41
2474,73	1099,76
2476,05	903,15
2477,36	794,61
2478,68	917,49
2480,00	854,00
2481,32	1046,51
2482,64	837,62
2483,95	864,24
2485,27	878,58
2486,59	872,43
2487,90	964,59
2489,22	802,80
2490,53	663,54
2491,85	976,88
2493,16	1064,94
2494,47	888,82
2495,79	884,72
2497,10	964,59
2498,41	804,85
2499,72	913,39
2501,03	921,59
2502,35	1019,89
2503,66	942,07
2504,97	976,88
2506,28	1181,68
2507,59	868,34
2508,89	1232,88
2510,20	831,48
2511,51	919,54
2512,82	948,21
2514,12	890,87
2515,43	1044,46
2516,74	940,02
2518,04	942,07
2519,35	1030,13
2520,65	897,01
2521,96	917,49
2523,26	985,07
2524,57	888,82
2525,87	815,09
2527,17	997,36
2528,47	989,17
2529,78	1134,57
2531,08	1171,44
2532,38	913,39
2533,68	1007,60
2534,98	956,40
2536,28	1114,09
2537,58	937,97
2538,88	1124,33
2540,18	868,34
2541,47	1249,26
2542,77	1196,01
2544,07	1245,16
2545,37	1200,11
2546,66	1230,83
2547,96	1130,48
2549,25	1245,16
2550,55	1220,59
2551,84	1134,57
2553,14	960,50
2554,43	1212,40
2555,72	1083,38
2557,02	1048,56
2558,31	1034,22
2559,60	1130,48
2560,89	1013,74
2562,18	991,22
2563,48	909,30
2564,77	954,35
2566,06	1181,68
2567,35	958,45
2568,63	958,45
2569,92	870,39
2571,21	964,59
2572,50	929,78
2573,79	946,16
2575,07	915,44
2576,36	907,25
2577,65	851,95
2578,93	960,50
2580,22	1095,66
2581,50	868,34
2582,79	1069,04
2584,07	958,45
2585,36	827,38
2586,64	890,87
2587,92	921,59
2589,20	862,19
2590,49	845,81
2591,77	735,22
2593,05	909,30
2594,33	901,11
2595,61	884,72
2596,89	970,74
2598,17	1023,98
2599,45	962,55
2600,73	903,15
2602,00	1026,03
2603,28	915,44
2604,56	845,81
2605,84	1005,55
2607,11	851,95
2608,39	1122,29
2609,67	1253,36
2610,94	1267,69
2612,22	1275,88
2613,49	1325,04
2614,76	1505,26
2616,04	1480,68
2617,31	1492,97
2618,58	1593,32
2619,86	1611,75
2621,13	1802,21
2622,40	1566,70
2623,67	1433,58
2624,94	1699,81
2626,21	1300,46
2627,48	1226,73
2628,75	1157,10
2630,02	1064,94
2631,29	1071,09
2632,56	1028,08
2633,82	886,77
2635,09	884,72
2636,36	858,10
2637,63	1148,91
2638,89	833,52
2640,16	919,54
2641,42	784,37
2642,69	929,78
2643,95	825,33
2645,22	761,84
2646,48	794,61
2647,74	884,72
2649,01	835,57
2650,27	765,94
2651,53	765,94
2652,79	954,35
2654,05	909,30
2655,31	739,32
2656,57	710,65
2657,83	714,74
2659,09	827,38
2660,35	751,60
2661,61	659,45
2662,87	634,87
2664,13	784,37
2665,38	751,60
2666,64	991,22
2667,90	825,33
2669,15	819,19
2670,41	786,42
2671,67	749,56
2672,92	884,72
2674,17	944,11
2675,43	847,86
2676,68	774,13
2677,94	716,79
2679,19	1058,80
2680,44	710,65
2681,69	854,00
2682,95	655,35
2684,20	794,61
2685,45	999,41
2686,70	821,24
2687,95	770,04
2689,20	792,56
2690,45	940,02
2691,70	825,33
2692,94	960,50
2694,19	862,19
2695,44	794,61
2696,69	882,67
2697,93	626,68
2699,18	854,00
2700,43	874,48
2701,67	903,15
2702,92	929,78
2704,16	894,96
2705,41	907,25
2706,65	749,56
2707,89	776,18
2709,14	839,67
2710,38	878,58
2711,62	878,58
2712,86	720,89
2714,11	745,46
2715,35	827,38
2716,59	862,19
2717,83	942,07
2719,07	808,95
2720,31	856,05
2721,55	839,67
2722,78	858,10
2724,02	798,71
2725,26	813,04
2726,50	827,38
2727,73	739,32
2728,97	837,62
2730,21	835,57
2731,44	897,01
2732,68	813,04
2733,91	649,21
2735,15	661,49
2736,38	915,44
2737,62	927,73
2738,85	780,28
2740,08	722,93
2741,32	774,13
2742,55	727,03
2743,78	800,76
2745,01	888,82
2746,24	780,28
2747,47	866,29
2748,70	917,49
2749,93	876,53
2751,16	745,46
2752,39	954,35
2753,62	921,59
2754,85	897,01
2756,08	772,08
2757,30	976,88
2758,53	1028,08
2759,76	854,00
2760,98	1026,03
2762,21	968,69
2763,43	882,67
2764,66	888,82
2765,88	940,02
2767,11	671,73
2768,33	796,66
2769,55	796,66
2770,78	860,15
2772,00	718,84
2773,22	1023,98
2774,44	917,49
2775,67	858,10
2776,89	743,41
2778,11	813,04
2779,33	866,29
2780,55	1046,51
2781,77	868,34
2782,99	829,43
2784,20	940,02
2785,42	1052,66
2786,64	854,00
2787,86	880,63
2789,07	843,76
2790,29	778,23
2791,51	931,83
2792,72	909,30
2793,94	935,92
2795,15	835,57
2796,37	780,28
2797,58	790,52
2798,80	872,43
2800,01	860,15
2801,22	722,93
2802,44	757,75
2803,65	804,85
2804,86	741,36
2806,07	753,65
2807,28	671,73
2808,49	696,31
2809,70	798,71
2810,91	632,82
2812,12	757,75
2813,33	761,84
2814,54	681,97
2815,75	870,39
2816,96	780,28
2818,16	837,62
2819,37	710,65
2820,58	731,12
2821,78	690,17
2822,99	759,80
2824,20	718,84
2825,40	786,42
2826,61	825,33
2827,81	600,05
2829,01	761,84
2830,22	632,82
2831,42	729,08
2832,62	720,88
2833,83	821,24
2835,03	915,44
2836,23	677,88
2837,43	774,13
2838,63	716,79
2839,83	772,08
2841,03	854,00
2842,23	677,88
2843,43	722,93
2844,63	688,12
2845,83	643,06
2847,03	575,48
2848,22	610,29
2849,42	630,77
2850,62	700,41
2851,81	757,75
2853,01	716,79
2854,21	604,15
2855,40	700,41
2856,60	684,02
2857,79	645,11
2858,99	714,74
2860,18	649,21
2861,37	858,10
2862,57	858,10
2863,76	819,19
2864,95	657,40
2866,14	649,21
2867,33	626,68
2868,52	729,08
2869,72	663,54
2870,91	813,04
2872,10	767,99
2873,28	757,75
2874,47	702,45
2875,66	722,93
2876,85	905,20
2878,04	886,77
2879,23	638,97
2880,41	677,88
2881,60	741,36
2882,79	710,65
2883,97	706,55
2885,16	634,87
2886,34	724,98
2887,53	790,52
2888,71	767,99
2889,90	669,69
2891,08	694,26
2892,26	561,14
2893,45	716,79
2894,63	714,74
2895,81	661,49
2896,99	739,32
2898,17	563,19
2899,36	704,50
2900,54	747,51
2901,72	688,12
2902,90	765,94
2904,08	837,62
2905,26	815,09
2906,43	616,44
2907,61	755,70
2908,79	880,63
2909,97	888,82
2911,14	935,92
2912,32	882,67
2913,50	831,48
2914,67	894,96
2915,85	954,35
2917,02	892,91
2918,20	890,87
2919,37	962,55
2920,55	835,57
2921,72	1060,85
2922,90	1155,05
2924,07	1183,73
2925,24	1181,68
2926,41	1011,70
2927,58	1101,81
2928,76	1116,14
2929,93	1107,95
2931,10	1187,82
2932,27	1105,90
2933,44	1259,50
2934,61	1198,06
2935,78	1153,01
2936,95	1216,49
2938,11	1128,43
2939,28	1320,94
2940,45	1503,21
2941,62	1714,15
2942,78	1949,67
2943,95	2119,65
2945,12	2537,43
2946,28	2570,20
2947,45	2770,90
2948,61	3078,10
2949,78	3039,19
2950,94	3053,52
2952,10	2824,15
2953,27	2783,19
2954,43	2658,26
2955,59	2195,42
2956,76	2136,03
2957,92	1767,40
2959,08	1890,28
2960,24	1511,40
2961,40	1349,61
2962,56	1269,74
2963,72	1300,46
2964,88	1126,38
2966,04	1185,77
2967,20	880,63
2968,36	985,07
2969,52	1009,65
2970,67	1054,70
2971,83	935,92
2972,99	851,95
2974,14	1124,33
2975,30	849,91
2976,46	1046,51
2977,61	917,49
2978,77	1007,60
2979,92	937,97
2981,08	933,87
2982,23	948,21
2983,38	929,78
2984,54	905,20
2985,69	968,69
2986,84	976,88
2987,99	978,93
2989,15	911,35
2990,30	960,50
2991,45	880,63
2992,60	884,72
2993,75	894,96
2994,90	866,29
2996,05	1107,95
2997,20	1122,29
2998,35	1075,18
2999,49	1032,18
3000,64	987,12
3001,79	1138,67
3002,94	1132,53
3004,08	1052,66
3005,23	1116,14
3006,38	1044,46
3007,52	1247,21
3008,67	1146,86
3009,81	1101,81
3010,96	1163,25
3012,10	1263,60
3013,25	1251,31
3014,39	1339,37
3015,53	1372,14
3016,67	1382,38
3017,82	1484,78
3018,96	1437,67
3020,10	1759,21
3021,24	1509,35
3022,38	1708,01
3023,52	1892,32
3024,66	1937,38
3025,80	1929,19
3026,94	1968,10
3028,08	2140,13
3029,22	2269,15
3030,36	2535,39
3031,50	2754,52
3032,63	2981,84
3033,77	3069,91
3034,91	3299,28
3036,04	3684,30
3037,18	4122,56
3038,32	4466,62
3039,45	4874,17
3040,59	5226,42
3041,72	5889,96
3042,86	6592,41
3043,99	7184,27
3045,12	7640,97
3046,26	8171,40
3047,39	8818,55
3048,52	9279,35
3049,65	10055,53
3050,78	10895,19
3051,92	12023,62
3053,05	13653,81
3054,18	15861,52
3055,31	17970,93
3056,44	19760,85
3057,57	21972,66
3058,70	24184,46
3059,82	25003,65
3060,95	25919,09
3062,08	26283,63
3063,21	26136,18
3064,34	26156,66
3065,46	25575,03
3066,59	24120,98
3067,71	23197,34
3068,84	21354,17
3069,97	18923,23
3071,09	16881,41
3072,22	14739,23
3073,34	13352,76
3074,46	11761,48
3075,59	9994,09
3076,71	8910,71
3077,83	7731,08
3078,96	6436,77
3080,08	5975,97
3081,20	5234,61
3082,32	4755,38
3083,44	4261,82
3084,56	3850,18
3085,68	3643,34
3086,80	3385,29
3087,92	2969,55
3089,04	2815,96
3090,16	2781,14
3091,28	2688,98
3092,40	2463,71
3093,51	2252,77
3094,63	2070,50
3095,75	1982,43
3096,87	1939,43
3097,98	1916,90
3099,10	1646,57
3100,21	1761,25
3101,33	1607,66
3102,44	1828,84
3103,56	1542,12
3104,67	1550,31
3105,79	1380,33
3106,90	1409,00
3108,01	1390,57
3109,12	1263,60
3110,24	1464,30
3111,35	1429,48
3112,46	1157,10
3113,57	1341,42
3114,68	1232,88
3115,79	1071,09
3116,90	1013,74
3118,01	1333,23
3119,12	1081,33
3120,23	1034,22
3121,34	1085,42
3122,45	1040,37
3123,56	1007,60
3124,66	935,92
3125,77	892,91
3126,88	1083,38
3127,98	923,63
3129,09	1023,98
3130,20	1009,65
3131,30	1017,84
3132,41	894,96
3133,51	806,90
3134,61	892,91
3135,72	999,41
3136,82	870,39
3137,93	911,35
3139,03	921,59
3140,13	1009,65
3141,23	843,76
3142,33	905,20
3143,44	899,06
3144,54	733,17
3145,64	716,79
3146,74	884,72
3147,84	901,11
3148,94	839,67
3150,04	817,14
3151,14	909,30
3152,23	790,52
3153,33	729,08
3154,43	761,84
3155,53	843,76
3156,63	968,69
3157,72	909,30
3158,82	956,40
3159,91	1120,24
3161,01	1101,81
3162,11	956,40
3163,20	1130,48
3164,30	1279,98
3165,39	1306,60
3166,48	1314,80
3167,58	1185,77
3168,67	1337,32
3169,76	1196,01
3170,86	1245,16
3171,95	1198,06
3173,04	1185,77
3174,13	1038,32
3175,22	1005,55
3176,31	1058,80
3177,40	1114,09
3178,49	1015,79
3179,58	983,02
3180,67	1343,47
3181,76	1296,36
3182,85	1327,08
3183,94	1384,43
3185,03	1419,24
3186,11	1517,54
3187,20	1525,74
3188,29	1701,86
3189,37	1439,72
3190,46	1552,36
3191,55	1253,36
3192,63	1193,97
3193,72	1337,32
3194,80	1204,21
3195,89	899,06
3196,97	1054,70
3198,05	1007,60
3199,14	946,16
3200,22	755,70
3201,30	905,20
3202,38	845,81
3203,47	727,03
3204,55	692,21
3205,63	698,36
3206,71	681,97
3207,79	620,53
3208,87	733,17
3209,95	851,95
3211,03	731,12
3212,11	606,20
3213,19	679,93
3214,27	681,97
3215,34	690,17
3216,42	679,93
3217,50	591,86
3218,58	649,21
3219,65	587,77
3220,73	634,87
3221,80	583,67
3222,88	737,27
3223,96	630,77
3225,03	497,66
3226,10	798,71
3227,18	655,35
3228,25	575,48
3229,33	612,34
3230,40	524,28
3231,47	569,34
3232,54	630,77
3233,62	626,68
3234,69	507,90
3235,76	626,68
3236,83	643,06
3237,90	624,63
3238,97	501,75
3240,04	538,62
3241,11	409,59
3242,18	583,67
3243,25	585,72
3244,32	557,05
3245,39	557,05
3246,45	481,27
3247,52	561,14
3248,59	514,04
3249,66	516,09
3250,72	503,80
3251,79	538,62
3252,85	540,66
3253,92	538,62
3254,98	520,18
3256,05	358,39
3257,11	526,33
3258,18	440,31
3259,24	475,13
3260,30	540,66
3261,37	587,77
3262,43	514,04
3263,49	399,35
3264,55	522,23
3265,62	610,29
3266,68	491,51
3267,74	354,30
3268,80	579,58
3269,86	528,38
3270,92	559,10
3271,98	604,15
3273,04	524,28
3274,10	524,28
3275,16	487,42
3276,21	464,89
3277,27	305,15
3278,33	514,04
3279,39	573,43
3280,44	593,91
3281,50	479,22
3282,56	352,25
3283,61	444,41
3284,67	581,62
3285,72	548,86
3286,78	716,79
3287,83	544,76
3288,88	440,31
3289,94	458,74
3290,99	651,25
3292,04	591,86
3293,10	604,15
3294,15	548,86
3295,20	608,25
3296,25	614,39
3297,30	442,36
3298,36	380,92
3299,41	407,55
3300,46	466,94
3301,51	350,20
3302,56	622,58
3303,61	602,10
3304,65	399,35
3305,70	473,08
3306,75	454,65
3307,80	526,33
3308,85	303,10
3309,89	663,54
3310,94	612,34
3311,99	452,60
3313,03	499,70
3314,08	411,64
3315,12	559,10
3316,17	591,86
3317,21	491,51
3318,26	479,22
3319,30	411,64
3320,35	425,98
3321,39	405,50
3322,43	587,77
3323,48	491,51
3324,52	530,42
3325,56	499,70
3326,60	505,85
3327,64	432,12
3328,68	509,94
3329,73	409,59
3330,77	380,92
3331,81	346,11
3332,85	593,91
3333,88	462,84
3334,92	370,68
3335,96	405,50
3337,00	462,84
3338,04	364,54
3339,08	364,54
3340,11	362,49
3341,15	651,25
3342,19	473,08
3343,22	438,27
3344,26	382,97
3345,30	565,24
3346,33	423,93
3347,37	491,51
3348,40	503,80
3349,43	550,90
3350,47	585,72
3351,50	516,09
3352,54	407,55
3353,57	507,90
3354,60	585,72
3355,63	428,03
3356,67	495,61
3357,70	423,93
3358,73	401,40
3359,76	516,09
3360,79	552,95
3361,82	471,03
3362,85	454,65
3363,88	460,79
3364,91	466,94
3365,94	595,96
3366,97	352,25
3367,99	436,22
3369,02	536,57
3370,05	634,87
3371,08	344,06
3372,10	538,62
3373,13	530,42
3374,16	393,21
3375,18	505,85
3376,21	497,66
3377,23	471,03
3378,26	450,55
3379,28	382,97
3380,31	376,83
3381,33	552,95
3382,35	561,14
3383,38	436,22
3384,40	405,50
3385,42	428,03
3386,45	276,48
3387,47	579,58
3388,49	563,19
3389,51	546,81
3390,53	419,83
3391,55	407,55
3392,57	387,07
3393,59	403,45
3394,61	444,41
3395,63	417,79
3396,65	428,03
3397,67	411,64
3398,69	419,83
3399,70	428,03
3400,72	477,18
3401,74	370,68
3402,76	436,22
3403,77	356,35
3404,79	417,79
3405,80	417,79
3406,82	409,59
3407,83	350,20
3408,85	479,22
3409,86	595,96
3410,88	550,90
3411,89	405,50
3412,91	546,81
3413,92	346,11
3414,93	393,21
3415,94	473,08
3416,96	270,33
3417,97	352,25
3418,98	387,07
3419,99	573,43
3421,00	307,20
3422,01	393,21
3423,02	413,69
3424,03	374,78
3425,04	518,14
3426,05	397,31
3427,06	397,31
3428,07	450,55
3429,08	407,55
3430,09	407,55
3431,09	501,75
3432,10	495,61
3433,11	530,42
3434,12	526,33
3435,12	542,71
3436,13	358,39
3437,13	450,55
3438,14	454,65
3439,14	272,38
3440,15	382,97
3441,15	405,50
3442,16	520,18
3443,16	438,27
3444,16	296,96
3445,17	434,17
3446,17	434,17
3447,17	425,98
3448,17	468,98
3449,18	446,46
3450,18	399,35
3451,18	442,36
3452,18	559,10
3453,18	354,30
3454,18	462,84
3455,18	432,12
3456,18	393,21
3457,18	356,35
3458,18	409,59
3459,17	350,20
3460,17	366,59
3461,17	507,90
3462,17	372,73
3463,17	423,93
3464,16	428,03
3465,16	450,55
3466,15	462,84
3467,15	403,45
3468,15	260,09
3469,14	518,14
3470,14	253,95
3471,13	348,15
3472,13	509,94
3473,12	493,56
3474,11	356,35
3475,11	409,59
3476,10	460,79
3477,09	423,93
3478,08	260,09
3479,08	329,72
3480,07	288,76
3481,06	487,42
3482,05	440,31
3483,04	587,77
3484,03	337,91
3485,02	339,96
3486,01	573,43
3487,00	370,68
3487,99	481,27
3488,98	366,59
3489,97	440,31
3490,95	331,77
3491,94	444,41
3492,93	391,16
3493,92	352,25
3494,90	456,70
3495,89	509,94
3496,88	376,83
3497,86	348,15
3498,85	434,17
3499,83	471,03
3500,82	358,39
3501,80	327,67
3502,79	241,66
3503,77	532,47
3504,75	430,07
3505,74	301,05
3506,72	487,42
3507,70	464,89
3508,68	425,98
3509,67	389,11
3510,65	462,84
3511,63	370,68
3512,61	331,77
3513,59	382,97
3514,57	413,69
3515,55	526,33
3516,53	376,83
3517,51	321,53
3518,49	376,83
3519,47	395,26
3520,45	350,20
3521,42	380,92
3522,40	409,59
3523,38	360,44
3524,36	468,98
3525,33	286,72
3526,31	401,40
3527,29	272,38
3528,26	524,28
3529,24	442,36
3530,21	473,08
3531,19	305,15
3532,16	370,68
3533,14	374,78
3534,11	483,32
3535,08	337,91
3536,06	487,42
3537,03	247,80
3538,00	288,76
3538,98	366,59
3539,95	481,27
3540,92	409,59
3541,89	331,77
3542,86	290,81
3543,83	360,44
3544,80	358,39
3545,77	399,35
3546,74	348,15
3547,71	348,15
3548,68	477,18
3549,65	417,79
3550,62	462,84
3551,59	434,17
3552,56	487,42
3553,52	428,03
3554,49	364,54
3555,46	358,39
3556,42	280,57
3557,39	337,91
3558,36	423,93
3559,32	514,04
3560,29	370,68
3561,25	391,16
3562,22	296,96
3563,18	260,09
3564,15	403,45
3565,11	387,07
3566,07	407,55
3567,04	419,83
3568,00	299,00
3568,96	421,88
3569,92	401,40
3570,89	403,45
3571,85	387,07
3572,81	448,51
3573,77	376,83
3574,73	411,64
3575,69	489,46
3576,65	258,04
3577,61	460,79
3578,57	249,85
3579,53	329,72
3580,49	270,33
3581,45	352,25
3582,40	389,11
3583,36	364,54
3584,32	378,87
3585,28	362,49
3586,23	151,55
3587,19	290,81
3588,15	444,41
3589,10	387,07
3590,06	256,00
3591,01	350,20
3591,97	325,63
3592,92	415,74
3593,88	438,27
3594,83	370,68
3595,78	436,22
3596,74	380,92
3597,69	495,61
3598,64	464,89
3599,60	241,66
3600,55	317,44
3601,50	268,28
3602,45	235,52
3603,40	372,73
3604,35	221,18
3605,31	440,31
3606,26	296,96
3607,21	356,35
3608,16	452,60
3609,10	548,86
3610,05	376,83
3611,00	378,87
3611,95	256,00
3612,90	393,21
3613,85	409,59
3614,79	438,27
3615,74	425,98
3616,69	446,46
3617,63	217,08
3618,58	327,68
3619,53	477,18
3620,47	380,92
3621,42	374,78
3622,36	417,79
3623,31	337,91
3624,25	471,03
3625,20	307,20
3626,14	272,38
3627,08	368,63
3628,03	329,72
3628,97	305,15
3629,91	354,30
3630,85	311,29
3631,80	335,87
3632,74	210,94
3633,68	571,38
3634,62	313,34
3635,56	278,52
3636,50	458,74
3637,44	309,24
3638,38	438,27
3639,32	352,25
3640,26	370,68
3641,20	405,50
3642,14	458,74
3643,08	360,44
3644,01	319,48
3644,95	442,36
3645,89	356,35
3646,83	344,06
3647,76	364,54
3648,70	344,06
3649,63	563,19
3650,57	253,95
3651,51	327,67
3652,44	362,49
3653,38	411,64
3654,31	272,38
3655,24	337,91
3656,18	370,68
3657,11	409,59
3658,05	294,91
3658,98	411,64
3659,91	296,96
3660,84	432,12
3661,78	331,77
3662,71	305,15
3663,64	296,96
3664,57	352,25
3665,50	313,34
3666,43	448,51
3667,36	329,72
3668,29	401,40
3669,22	413,69
3670,15	511,99
3671,08	358,39
3672,01	284,67
3672,94	352,25
3673,86	387,07
3674,79	356,35
3675,72	411,64
3676,65	489,46
3677,57	411,64
3678,50	417,79
3679,43	499,70
3680,35	268,28
3681,28	325,63
3682,20	405,50
3683,13	389,11
3684,05	354,30
3684,98	344,06
3685,90	280,57
3686,83	479,22
3687,75	446,46
3688,67	333,82
3689,60	389,11
3690,52	321,53
3691,44	294,91
3692,36	309,24
3693,28	286,72
3694,21	468,98
3695,13	321,53
3696,05	288,76
3696,97	333,82
3697,89	296,96
3698,81	239,61
3699,73	444,41
3700,65	415,74
3701,57	329,72
3702,48	329,72
3703,40	415,74
3704,32	337,91
3705,24	434,17
3706,16	346,11
3707,07	407,55
3707,99	245,76
3708,91	389,11
3709,82	331,77
3710,74	360,44
3711,66	294,91
3712,57	442,36
3713,49	354,30
3714,40	413,69
3715,31	317,44
3716,23	342,01
3717,14	319,48
3718,06	249,85
3718,97	471,03
3719,88	270,33
3720,80	423,93
3721,71	1597,42
3722,62	380,92
3723,53	266,24
3724,44	440,31
3725,35	348,15
3726,26	339,96
3727,18	278,52
3728,09	374,78
3729,00	391,16
3729,91	446,46
3730,81	342,01
3731,72	339,96
3732,63	249,85
3733,54	329,72
3734,45	276,48
3735,36	368,63
3736,26	323,58
3737,17	301,05
3738,08	348,15
3738,99	264,19
3739,89	268,28
3740,80	411,64
3741,70	479,22
3742,61	344,06
3743,51	378,87
3744,42	333,82
3745,32	421,88
3746,23	319,48
3747,13	325,63
3748,04	415,74
3748,94	260,09
3749,84	315,39
3750,74	356,35
3751,65	272,38
3752,55	411,64
3753,45	354,30
3754,35	335,87
3755,25	231,42
3756,16	225,28
3757,06	286,72
3757,96	458,75
3758,86	368,63
3759,76	376,83
3760,66	342,01
3761,55	296,96
3762,45	296,96
3763,35	391,16
3764,25	331,77
3765,15	325,63
3766,05	206,84
3766,94	305,15
3767,84	364,54
3768,74	266,24
3769,63	290,81
3770,53	303,10
3771,43	348,15
3772,32	270,33
3773,22	348,15
3774,11	323,58
3775,01	288,76
3775,90	270,33
3776,80	319,48
3777,69	139,26
3778,58	245,76
3779,48	247,80
3780,37	325,63
3781,26	370,68
3782,16	237,56
3783,05	206,84
3783,94	311,29
3784,83	393,21
3785,72	358,39
3786,61	305,15
3787,50	217,08
3788,39	395,26
3789,28	268,28
3790,17	399,35
3791,06	212,99
3791,95	305,15
3792,84	413,69
3793,73	258,04
3794,62	309,24
3795,51	301,05
3796,39	327,68
3797,28	333,82
3798,17	237,56
3799,06	270,33
3799,94	368,63
3800,83	342,01
3801,71	303,10
3802,60	301,05
3803,48	186,37
3804,37	225,28
3805,25	327,67
3806,14	292,86
3807,02	235,52
3807,91	215,04
3808,79	329,72
3809,67	475,13
3810,56	438,27
3811,44	382,97
3812,32	423,93
3813,20	450,55
3814,09	251,90
3814,97	249,85
3815,85	325,63
3816,73	317,44
3817,61	403,45
3818,49	382,97
3819,37	337,91
3820,25	419,83
3821,13	204,80
3822,01	344,06
3822,89	299,00
3823,77	374,78
3824,65	358,39
3825,52	272,38
3826,40	249,85
3827,28	251,90
3828,16	280,57
3829,03	294,91
3829,91	503,80
3830,79	243,71
3831,66	251,90
3832,54	313,34
3833,41	309,24
3834,29	444,41
3835,16	223,23
3836,04	264,19
3836,91	241,66
3837,79	346,11
3838,66	159,74
3839,53	184,32
3840,41	286,72
3841,28	333,82
3842,15	288,76
3843,02	448,51
3843,90	290,81
3844,77	350,20
3845,64	313,34
3846,51	348,15
3847,38	190,46
3848,25	284,67
3849,12	391,16
3849,99	378,87
3850,86	319,48
3851,73	221,18
3852,60	223,23
3853,47	366,59
3854,34	311,29
3855,21	311,29
3856,07	356,35
3856,94	239,61
3857,81	372,73
3858,68	172,03
3859,54	245,76
3860,41	276,48
3861,28	466,94
3862,14	346,11
3863,01	335,87
3863,87	288,76
3864,74	335,87
3865,60	86,01
3866,47	350,20
3867,33	313,34
3868,19	225,28
3869,06	280,57
3869,92	192,51
3870,78	325,63
3871,65	321,53
3872,51	331,77
3873,37	194,56
3874,23	309,24
3875,10	325,63
3875,96	301,05
3876,82	423,93
3877,68	172,03
3878,54	243,71
3879,40	372,73
3880,26	303,10
3881,12	182,27
3881,98	409,59
3882,84	233,47
3883,70	354,30
3884,55	362,49
3885,41	143,36
3886,27	198,65
3887,13	348,15
3887,99	274,43
3888,84	204,80
3889,70	290,81
3890,56	374,78
3891,41	223,23
3892,27	202,75
3893,12	368,63
3893,98	325,63
3894,83	282,62
3895,69	253,95
3896,54	206,84
3897,40	299,00
3898,25	212,99
3899,11	360,44
3899,96	303,10
3900,81	325,63
3901,66	235,52
3902,52	317,44
3903,37	366,59
3904,22	417,79
3905,07	217,08
3905,92	212,99
3906,78	335,87
3907,63	202,75
>>>>>End Processed Spectral Data<<<<<
