SpectraSuite Datei
++++++++++++++++++++++++++++++++++++
Datum: Wed Nov 28 12:03:58 CET 2018
Benutzer: Raman
Dark-Spektrum vorhanden: Ja
Referenz-Spektrum vorhanden: Nein
Zahl der probierten Teilspektren: 1
Spektrometer: USB4F00098
Integrationszeit (usec): 10000000 (USB4F00098)
Spektren Durchschnitt berechnet: 1 (USB4F00098)
Boxcar Glättung: 0 (USB4F00098)
Dunkelstromkorrektur: Nein (USB4F00098)
Puls/Lampe aktiviert: Nein (USB4F00098)
Correct for Detector Non-linearity: Nein (USB4F00098)
Streulichtkorrektur: Nein (USB4F00098)
Anzahl Pixel in verarbeitetem Spektrum: 3648
>>>>>Begin Processed Spectral Data<<<<<
-2184,52	-59,39
-2181,51	-59,39
-2178,50	-59,39
-2175,49	10,24
-2172,49	16,38
-2169,48	-34,82
-2166,48	-18,43
-2163,48	-12,29
-2160,47	86,01
-2157,47	-104,45
-2154,47	-77,82
-2151,48	51,20
-2148,48	94,21
-2145,49	122,88
-2142,49	147,45
-2139,50	32,77
-2136,51	90,11
-2133,52	-61,44
-2130,53	274,43
-2127,54	0,00
-2124,55	253,95
-2121,57	317,44
-2118,58	172,03
-2115,60	219,13
-2112,62	159,74
-2109,64	294,91
-2106,66	118,78
-2103,68	96,25
-2100,70	344,06
-2097,73	100,35
-2094,75	182,27
-2091,78	153,60
-2088,81	247,80
-2085,83	215,04
-2082,86	374,78
-2079,90	333,82
-2076,93	57,34
-2073,96	262,14
-2071,00	385,02
-2068,03	88,06
-2065,07	319,48
-2062,11	190,46
-2059,15	124,93
-2056,19	376,83
-2053,23	296,96
-2050,27	342,01
-2047,32	268,28
-2044,36	184,32
-2041,41	356,35
-2038,46	249,85
-2035,51	163,84
-2032,56	124,93
-2029,61	59,39
-2026,66	286,72
-2023,72	225,28
-2020,77	143,36
-2017,83	153,60
-2014,88	106,49
-2011,94	278,52
-2009,00	155,65
-2006,06	432,12
-2003,13	317,44
-2000,19	110,59
-1997,25	163,84
-1994,32	323,58
-1991,39	186,37
-1988,45	358,39
-1985,52	210,94
-1982,59	362,49
-1979,67	397,31
-1976,74	186,37
-1973,81	241,66
-1970,89	274,43
-1967,96	380,92
-1965,04	258,04
-1962,12	-30,72
-1959,20	202,75
-1956,28	190,46
-1953,36	165,89
-1950,45	260,09
-1947,53	264,19
-1944,62	215,04
-1941,70	145,41
-1938,79	327,68
-1935,88	247,80
-1932,97	204,80
-1930,06	-24,58
-1927,15	133,12
-1924,25	333,82
-1921,34	329,72
-1918,44	194,56
-1915,54	387,07
-1912,63	301,05
-1909,73	129,02
-1906,83	-4,10
-1903,94	278,52
-1901,04	286,72
-1898,14	161,79
-1895,25	237,56
-1892,36	-59,39
-1889,46	233,47
-1886,57	290,81
-1883,68	348,15
-1880,79	327,68
-1877,91	6,14
-1875,02	176,13
-1872,13	333,82
-1869,25	256,00
-1866,37	180,22
-1863,48	266,24
-1860,60	315,39
-1857,72	360,44
-1854,84	71,68
-1851,97	231,42
-1849,09	186,37
-1846,22	382,97
-1843,34	268,28
-1840,47	163,84
-1837,60	356,35
-1834,73	223,23
-1831,86	153,60
-1828,99	151,55
-1826,12	75,77
-1823,26	208,89
-1820,39	49,15
-1817,53	161,79
-1814,67	163,84
-1811,80	83,97
-1808,94	149,50
-1806,08	169,98
-1803,23	227,32
-1800,37	16,38
-1797,51	75,77
-1794,66	167,93
-1791,81	225,28
-1788,95	307,20
-1786,10	112,64
-1783,25	253,95
-1780,40	20,48
-1777,56	92,16
-1774,71	143,36
-1771,86	118,78
-1769,02	342,01
-1766,18	370,68
-1763,33	217,08
-1760,49	339,96
-1757,65	96,25
-1754,81	210,94
-1751,98	239,61
-1749,14	268,28
-1746,30	342,01
-1743,47	206,84
-1740,64	202,75
-1737,81	210,94
-1734,97	419,83
-1732,14	219,13
-1729,32	104,45
-1726,49	131,07
-1723,66	98,30
-1720,84	290,81
-1718,01	100,35
-1715,19	309,24
-1712,37	110,59
-1709,55	245,76
-1706,73	122,88
-1703,91	303,10
-1701,09	327,67
-1698,27	319,48
-1695,46	342,01
-1692,65	38,91
-1689,83	129,02
-1687,02	92,16
-1684,21	221,18
-1681,40	137,21
-1678,59	317,44
-1675,78	294,91
-1672,98	180,22
-1670,17	329,72
-1667,37	212,99
-1664,56	20,48
-1661,76	75,77
-1658,96	155,65
-1656,16	264,19
-1653,36	75,77
-1650,57	104,45
-1647,77	190,46
-1644,97	26,62
-1642,18	192,51
-1639,39	108,54
-1636,60	92,16
-1633,80	106,49
-1631,01	229,37
-1628,23	159,74
-1625,44	98,30
-1622,65	149,50
-1619,87	77,82
-1617,08	155,65
-1614,30	337,91
-1611,52	110,59
-1608,74	180,22
-1605,96	204,80
-1603,18	71,68
-1600,40	212,99
-1597,62	67,58
-1594,85	163,84
-1592,07	165,89
-1589,30	116,73
-1586,53	223,23
-1583,76	-22,53
-1580,99	0,00
-1578,22	286,72
-1575,45	45,06
-1572,68	378,87
-1569,92	212,99
-1567,15	280,57
-1564,39	71,68
-1561,63	219,13
-1558,86	288,76
-1556,10	358,39
-1553,34	212,99
-1550,59	22,53
-1547,83	198,65
-1545,07	155,65
-1542,32	202,75
-1539,56	147,45
-1536,81	151,55
-1534,06	94,21
-1531,31	114,69
-1528,56	227,32
-1525,81	282,62
-1523,06	122,88
-1520,32	192,51
-1517,57	169,98
-1514,83	96,25
-1512,09	90,11
-1509,34	239,61
-1506,60	266,24
-1503,86	229,37
-1501,12	178,17
-1498,39	180,22
-1495,65	215,04
-1492,91	65,54
-1490,18	57,34
-1487,45	196,61
-1484,71	114,69
-1481,98	190,46
-1479,25	0,00
-1476,52	104,45
-1473,80	30,72
-1471,07	90,11
-1468,34	81,92
-1465,62	315,39
-1462,89	153,60
-1460,17	165,89
-1457,45	204,80
-1454,73	114,69
-1452,01	22,53
-1449,29	49,15
-1446,57	215,04
-1443,86	-6,14
-1441,14	241,66
-1438,43	274,43
-1435,71	65,53
-1433,00	69,63
-1430,29	96,25
-1427,58	196,60
-1424,87	155,65
-1422,16	206,84
-1419,46	176,13
-1416,75	178,17
-1414,05	212,99
-1411,34	114,69
-1408,64	8,19
-1405,94	153,60
-1403,24	301,05
-1400,54	147,45
-1397,84	2881,49
-1395,14	149,50
-1392,45	45,06
-1389,75	98,30
-1387,06	131,07
-1384,36	34,82
-1381,67	163,84
-1378,98	98,30
-1376,29	108,54
-1373,60	174,08
-1370,91	169,98
-1368,23	131,07
-1365,54	163,84
-1362,86	98,30
-1360,17	86,01
-1357,49	198,65
-1354,81	92,16
-1352,13	81,92
-1349,45	114,69
-1346,77	337,91
-1344,09	184,32
-1341,42	204,80
-1338,74	110,59
-1336,07	192,51
-1333,39	335,87
-1330,72	133,12
-1328,05	174,08
-1325,38	133,12
-1322,71	317,44
-1320,04	149,50
-1317,37	260,09
-1314,71	43,01
-1312,04	145,41
-1309,38	114,69
-1306,72	137,21
-1304,05	196,60
-1301,39	92,16
-1298,73	53,25
-1296,08	94,21
-1293,42	217,08
-1290,76	51,20
-1288,10	299,00
-1285,45	159,74
-1282,80	176,13
-1280,14	327,67
-1277,49	196,61
-1274,84	65,53
-1272,19	288,76
-1269,54	129,02
-1266,90	102,40
-1264,25	311,29
-1261,60	202,75
-1258,96	307,20
-1256,32	235,52
-1253,67	55,30
-1251,03	180,22
-1248,39	274,43
-1245,75	227,32
-1243,11	323,58
-1240,48	4,10
-1237,84	344,06
-1235,20	100,35
-1232,57	206,84
-1229,94	176,13
-1227,31	137,21
-1224,67	47,10
-1222,04	239,61
-1219,41	116,73
-1216,79	55,30
-1214,16	223,23
-1211,53	108,54
-1208,91	147,45
-1206,28	57,34
-1203,66	49,15
-1201,04	147,45
-1198,42	122,88
-1195,80	192,51
-1193,18	67,58
-1190,56	131,07
-1187,94	129,02
-1185,33	212,99
-1182,71	38,91
-1180,10	159,74
-1177,49	323,58
-1174,87	239,61
-1172,26	186,37
-1169,65	-10,24
-1167,04	96,25
-1164,44	45,06
-1161,83	120,83
-1159,22	92,16
-1156,62	98,30
-1154,01	88,06
-1151,41	67,58
-1148,81	61,44
-1146,21	108,54
-1143,61	-55,30
-1141,01	120,83
-1138,41	90,11
-1135,81	135,17
-1133,22	249,85
-1130,62	-77,82
-1128,03	12,29
-1125,44	225,28
-1122,84	-26,62
-1120,25	129,02
-1117,66	40,96
-1115,07	112,64
-1112,49	186,37
-1109,90	6,14
-1107,31	260,09
-1104,73	204,80
-1102,14	225,28
-1099,56	30,72
-1096,98	182,27
-1094,40	77,82
-1091,82	59,39
-1089,24	141,31
-1086,66	151,55
-1084,08	196,60
-1081,51	307,20
-1078,93	98,30
-1076,36	118,78
-1073,79	247,80
-1071,21	194,56
-1068,64	96,25
-1066,07	342,01
-1063,50	94,21
-1060,93	108,54
-1058,37	239,61
-1055,80	155,65
-1053,24	112,64
-1050,67	227,32
-1048,11	-61,44
-1045,55	90,11
-1042,99	133,12
-1040,42	186,37
-1037,87	88,06
-1035,31	122,88
-1032,75	104,45
-1030,19	159,74
-1027,64	-38,91
-1025,08	20,48
-1022,53	120,83
-1019,98	126,97
-1017,43	131,07
-1014,88	204,80
-1012,33	182,27
-1009,78	147,45
-1007,23	192,51
-1004,68	124,93
-1002,14	-40,96
-999,59	139,26
-997,05	118,78
-994,51	59,39
-991,96	14,34
-989,42	159,74
-986,88	-59,39
-984,34	67,58
-981,81	147,45
-979,27	159,74
-976,73	161,79
-974,20	43,01
-971,66	-2,05
-969,13	147,45
-966,60	116,73
-964,07	51,20
-961,54	96,25
-959,01	-8,19
-956,48	202,75
-953,95	178,17
-951,43	133,12
-948,90	153,60
-946,38	86,01
-943,85	118,78
-941,33	69,63
-938,81	204,80
-936,29	180,22
-933,77	18,43
-931,25	71,68
-928,73	110,59
-926,22	178,17
-923,70	159,74
-921,19	155,65
-918,67	124,93
-916,16	249,85
-913,65	102,40
-911,14	165,89
-908,63	270,33
-906,12	34,82
-903,61	110,59
-901,10	90,11
-898,59	77,82
-896,09	8,19
-893,59	237,56
-891,08	-45,06
-888,58	112,64
-886,08	176,13
-883,58	196,60
-881,08	-30,72
-878,58	180,22
-876,08	221,18
-873,58	167,93
-871,09	172,03
-868,59	104,45
-866,10	98,30
-863,61	243,71
-861,12	147,45
-858,62	208,89
-856,13	129,02
-853,64	182,27
-851,16	159,74
-848,67	-20,48
-846,18	16,38
-843,70	276,48
-841,21	223,23
-838,73	188,41
-836,25	6,14
-833,77	159,74
-831,28	237,56
-828,81	71,68
-826,33	184,32
-823,85	174,08
-821,37	243,71
-818,90	120,83
-816,42	77,82
-813,95	288,76
-811,47	135,17
-809,00	210,94
-806,53	-2,05
-804,06	135,17
-801,59	227,32
-799,12	100,35
-796,65	22,53
-794,19	75,77
-791,72	126,97
-789,26	122,88
-786,79	102,40
-784,33	231,42
-781,87	186,37
-779,41	102,40
-776,95	253,95
-774,49	116,73
-772,03	43,01
-769,57	86,01
-767,12	219,13
-764,66	75,77
-762,21	163,84
-759,75	112,64
-757,30	100,35
-754,85	-24,58
-752,40	53,25
-749,95	118,78
-747,50	90,11
-745,05	-38,91
-742,60	258,04
-740,16	186,37
-737,71	284,67
-735,27	-38,91
-732,82	83,97
-730,38	69,63
-727,94	55,30
-725,50	169,98
-723,06	86,01
-720,62	327,68
-718,18	184,32
-715,74	370,68
-713,31	202,75
-710,87	208,89
-708,44	266,24
-706,01	73,73
-703,57	22,53
-701,14	-36,86
-698,71	86,01
-696,28	307,20
-693,85	110,59
-691,42	188,41
-689,00	16,38
-686,57	-43,01
-684,15	272,38
-681,72	34,82
-679,30	-34,82
-676,88	198,65
-674,45	260,09
-672,03	237,56
-669,61	165,89
-667,20	79,87
-664,78	18,43
-662,36	247,80
-659,94	210,94
-657,53	51,20
-655,12	147,45
-652,70	104,45
-650,29	204,80
-647,88	129,02
-645,47	229,37
-643,06	81,92
-640,65	202,75
-638,24	178,17
-635,83	229,37
-633,43	20,48
-631,02	120,83
-628,62	147,45
-626,22	139,26
-623,81	-24,58
-621,41	235,52
-619,01	139,26
-616,61	73,73
-614,21	126,97
-611,81	135,17
-609,42	149,50
-607,02	167,93
-604,63	147,45
-602,23	86,01
-599,84	104,45
-597,45	-26,62
-595,05	305,15
-592,66	264,19
-590,27	251,90
-587,88	86,01
-585,50	137,21
-583,11	6,14
-580,72	-51,20
-578,34	190,46
-575,95	153,60
-573,57	71,68
-571,19	40,96
-568,80	200,70
-566,42	208,89
-564,04	20,48
-561,66	118,78
-559,29	163,84
-556,91	249,85
-554,53	102,40
-552,16	59,39
-549,78	92,16
-547,41	124,93
-545,03	159,74
-542,66	104,45
-540,29	53,25
-537,92	133,12
-535,55	151,55
-533,18	212,99
-530,81	239,61
-528,45	2,05
-526,08	30,72
-523,72	126,97
-521,35	61,44
-518,99	202,75
-516,63	-43,01
-514,27	210,94
-511,90	141,31
-509,54	141,31
-507,19	184,32
-504,83	249,85
-502,47	172,03
-500,11	264,19
-497,76	180,22
-495,40	182,27
-493,05	215,04
-490,70	14,34
-488,35	190,46
-486,00	143,36
-483,65	192,51
-481,30	10,24
-478,95	18,43
-476,60	174,08
-474,25	270,33
-471,91	227,32
-469,56	278,52
-467,22	362,49
-464,88	190,46
-462,53	94,21
-460,19	233,47
-457,85	98,30
-455,51	233,47
-453,17	202,75
-450,84	253,95
-448,50	192,51
-446,16	145,41
-443,83	245,76
-441,49	186,37
-439,16	282,62
-436,83	237,56
-434,50	47,10
-432,16	188,41
-429,83	118,78
-427,50	229,37
-425,18	311,29
-422,85	157,69
-420,52	47,10
-418,20	129,02
-415,87	174,08
-413,55	196,61
-411,22	184,32
-408,90	71,68
-406,58	71,68
-404,26	81,92
-401,94	206,84
-399,62	241,66
-397,30	284,67
-394,99	157,69
-392,67	174,08
-390,35	253,95
-388,04	221,18
-385,73	223,23
-383,41	182,27
-381,10	198,65
-378,79	65,53
-376,48	200,70
-374,17	323,58
-371,86	129,02
-369,55	301,05
-367,25	98,30
-364,94	262,14
-362,64	104,45
-360,33	204,80
-358,03	251,90
-355,73	75,77
-353,42	71,68
-351,12	108,54
-348,82	253,95
-346,52	229,37
-344,23	296,96
-341,93	96,25
-339,63	71,68
-337,34	16,38
-335,04	104,45
-332,75	260,09
-330,45	149,50
-328,16	190,46
-325,87	133,12
-323,58	147,45
-321,29	157,69
-319,00	206,84
-316,71	172,03
-314,42	120,83
-312,14	69,63
-309,85	32,77
-307,57	190,46
-305,28	-34,82
-303,00	124,93
-300,72	555,00
-298,44	131,07
-296,16	53,25
-293,88	165,89
-291,60	196,61
-289,32	176,13
-287,04	-12,29
-284,77	47,10
-282,49	92,16
-280,22	65,54
-277,94	149,50
-275,67	141,31
-273,40	110,59
-271,13	92,16
-268,85	81,92
-266,59	22,53
-264,32	122,88
-262,05	153,60
-259,78	198,65
-257,51	194,56
-255,25	67,58
-252,98	247,80
-250,72	59,39
-248,46	98,30
-246,20	135,17
-243,93	55,30
-241,67	-61,44
-239,41	215,04
-237,16	145,41
-234,90	71,68
-232,64	-26,62
-230,38	126,97
-228,13	208,89
-225,87	4,10
-223,62	75,77
-221,37	243,71
-219,11	157,69
-216,86	221,18
-214,61	83,97
-212,36	-16,38
-210,11	30,72
-207,87	120,83
-205,62	18,43
-203,37	188,41
-201,13	88,06
-198,88	98,30
-196,64	245,76
-194,39	202,75
-192,15	186,37
-189,91	59,39
-187,67	81,92
-185,43	30,72
-183,19	256,00
-180,95	73,73
-178,72	22,53
-176,48	26,62
-174,24	131,07
-172,01	2,05
-169,77	323,58
-167,54	45,06
-165,31	225,28
-163,08	71,68
-160,85	53,25
-158,62	167,93
-156,39	90,11
-154,16	81,92
-151,93	180,22
-149,70	73,73
-147,48	212,99
-145,25	106,49
-143,03	-8,19
-140,81	-18,43
-138,58	2,05
-136,36	61,44
-134,14	-55,30
-131,92	165,89
-129,70	335,87
-127,48	151,55
-125,26	104,45
-123,05	43,01
-120,83	159,74
-118,62	217,08
-116,40	24,58
-114,19	137,21
-111,97	75,77
-109,76	151,55
-107,55	198,65
-105,34	202,75
-103,13	190,46
-100,92	106,49
-98,71	104,45
-96,51	53,25
-94,30	36,86
-92,09	309,24
-89,89	55,30
-87,69	10,24
-85,48	292,86
-83,28	100,35
-81,08	108,54
-78,88	149,50
-76,68	153,60
-74,48	-36,86
-72,28	94,21
-70,08	147,45
-67,88	210,94
-65,69	4,10
-63,49	215,04
-61,30	325,63
-59,11	65,53
-56,91	10,24
-54,72	-43,01
-52,53	135,17
-50,34	36,86
-48,15	114,69
-45,96	141,31
-43,77	198,65
-41,59	43,01
-39,40	16,38
-37,21	133,12
-35,03	16,38
-32,84	12,29
-30,66	288,76
-28,48	204,80
-26,30	92,16
-24,12	219,13
-21,94	380,92
-19,76	651,25
-17,58	1044,46
-15,40	1603,56
-13,22	2639,83
-11,05	3909,57
-8,87	5294,00
-6,70	6776,73
-4,52	8513,41
-2,35	9633,64
-0,18	8763,26
1,99	8286,08
4,16	7944,07
6,33	6506,40
8,50	5406,64
10,67	5042,10
12,84	4063,17
15,00	3090,38
17,17	2273,25
19,33	1642,47
21,50	1556,46
23,66	1409,00
25,83	1241,07
27,99	655,35
30,15	585,72
32,31	333,82
34,47	323,58
36,63	233,47
38,79	169,98
40,94	169,98
43,10	174,08
45,25	-53,25
47,41	28,67
49,56	141,31
51,72	262,14
53,87	167,93
56,02	292,86
58,17	208,89
60,32	143,36
62,47	387,07
64,62	268,28
66,77	34,82
68,92	-12,29
71,06	55,30
73,21	141,31
75,35	147,45
77,50	49,15
79,64	-157,69
81,78	118,78
83,92	147,45
86,06	161,79
88,20	47,10
90,34	-16,38
92,48	53,25
94,62	217,08
96,76	81,92
98,89	86,01
101,03	149,50
103,16	63,49
105,30	155,65
107,43	88,06
109,56	180,22
111,69	288,76
113,82	223,23
115,95	184,32
118,08	172,03
120,21	174,08
122,34	1777,64
124,47	153,60
126,59	139,26
128,72	131,07
130,84	79,87
132,97	-59,39
135,09	245,76
137,21	131,07
139,33	94,21
141,45	-38,91
143,57	28,67
145,69	305,15
147,81	169,98
149,93	57,34
152,05	231,42
154,16	360,44
156,28	161,79
158,39	184,32
160,51	303,10
162,62	208,89
164,73	51,20
166,85	12,29
168,96	112,64
171,07	16,38
173,18	231,42
175,28	77,82
177,39	118,78
179,50	100,35
181,61	-20,48
183,71	-34,82
185,82	100,35
187,92	108,54
190,02	212,99
192,13	88,06
194,23	-26,62
196,33	112,64
198,43	151,55
200,53	182,27
202,63	77,82
204,72	-6,14
206,82	249,85
208,92	8,19
211,01	22,53
213,11	208,89
215,20	118,78
217,30	108,54
219,39	104,45
221,48	-18,43
223,57	184,32
225,66	208,89
227,75	104,45
229,84	110,59
231,93	100,35
234,02	88,06
236,10	137,21
238,19	135,17
240,28	188,41
242,36	118,78
244,44	49,15
246,53	14,34
248,61	73,73
250,69	311,29
252,77	184,32
254,85	102,40
256,93	278,52
259,01	215,04
261,09	354,30
263,16	350,20
265,24	331,77
267,32	342,01
269,39	446,46
271,46	602,10
273,54	555,00
275,61	673,78
277,68	518,14
279,75	579,58
281,82	544,76
283,89	727,03
285,96	753,65
288,03	743,41
290,10	618,49
292,16	645,11
294,23	610,29
296,29	696,31
298,36	552,95
300,42	653,30
302,49	659,45
304,55	585,72
306,61	473,08
308,67	964,59
310,73	581,62
312,79	538,62
314,85	372,73
316,90	468,98
318,96	786,42
321,02	567,29
323,07	649,21
325,13	647,16
327,18	698,36
329,24	516,09
331,29	587,77
333,34	567,29
335,39	462,84
337,44	473,08
339,49	571,38
341,54	567,29
343,59	571,38
345,64	614,39
347,68	638,97
349,73	477,18
351,77	638,97
353,82	571,38
355,86	442,36
357,90	542,71
359,95	632,82
361,99	487,42
364,03	466,94
366,07	536,57
368,11	378,87
370,15	593,91
372,19	575,48
374,22	514,04
376,26	598,01
378,29	606,20
380,33	536,57
382,36	784,37
384,40	522,23
386,43	737,27
388,46	563,19
390,49	540,66
392,52	464,89
394,55	538,62
396,58	677,88
398,61	546,81
400,64	464,89
402,67	710,65
404,69	618,49
406,72	608,25
408,74	724,98
410,77	694,26
412,79	634,87
414,81	792,56
416,84	860,15
418,86	772,08
420,88	837,62
422,90	763,89
424,92	890,87
426,94	743,41
428,95	878,58
430,97	1038,32
432,99	1056,75
435,00	1114,09
437,02	940,02
439,03	997,36
441,04	917,49
443,06	972,79
445,07	890,87
447,08	1017,84
449,09	675,83
451,10	901,11
453,11	804,85
455,12	753,65
457,13	714,74
459,13	645,11
461,14	796,66
463,14	671,73
465,15	632,82
467,15	837,62
469,16	593,91
471,16	811,00
473,16	833,52
475,16	540,66
477,16	600,05
479,16	724,98
481,16	581,62
483,16	720,89
485,16	520,18
487,15	546,81
489,15	577,53
491,15	595,96
493,14	546,81
495,14	684,02
497,13	552,95
499,12	694,26
501,11	458,74
503,11	653,30
505,10	516,09
507,09	446,46
509,07	665,59
511,06	434,17
513,05	456,70
515,04	301,05
517,02	546,81
519,01	665,59
521,00	505,85
522,98	559,10
524,96	552,95
526,95	460,79
528,93	497,66
530,91	505,85
532,89	591,86
534,87	380,92
536,85	339,96
538,83	495,61
540,81	569,34
542,78	485,37
544,76	499,70
546,74	536,57
548,71	464,89
550,69	509,94
552,66	585,72
554,63	649,21
556,60	632,82
558,58	487,42
560,55	528,38
562,52	595,96
564,49	497,66
566,46	333,82
568,42	593,91
570,39	503,80
572,36	585,72
574,32	544,76
576,29	395,26
578,25	557,05
580,22	352,25
582,18	423,93
584,14	346,11
586,11	509,94
588,07	593,91
590,03	434,17
591,99	534,52
593,95	511,99
595,90	362,49
597,86	477,18
599,82	505,85
601,78	530,42
603,73	661,49
605,69	425,98
607,64	448,51
609,59	440,31
611,55	403,45
613,50	604,15
615,45	487,42
617,40	684,02
619,35	593,91
621,30	681,97
623,25	555,00
625,20	536,57
627,15	591,86
629,09	403,45
631,04	395,26
632,98	555,00
634,93	585,72
636,87	561,14
638,82	536,57
640,76	491,51
642,70	540,66
644,64	366,59
646,58	540,66
648,52	530,42
650,46	485,37
652,40	477,18
654,34	509,94
656,27	571,38
658,21	380,92
660,15	591,86
662,08	370,68
664,02	532,47
665,95	575,48
667,88	331,77
669,82	309,24
671,75	544,76
673,68	632,82
675,61	618,49
677,54	446,46
679,47	440,31
681,40	600,05
683,32	399,35
685,25	452,60
687,18	483,32
689,10	485,37
691,03	503,80
692,95	565,24
694,87	393,21
696,80	534,52
698,72	276,48
700,64	501,75
702,56	423,93
704,48	579,58
706,40	686,07
708,32	638,97
710,24	487,42
712,16	491,51
714,07	479,22
715,99	493,56
717,90	415,74
719,82	452,60
721,73	452,60
723,65	423,93
725,56	452,60
727,47	651,25
729,38	303,10
731,29	411,64
733,20	507,90
735,11	511,99
737,02	372,73
738,93	546,81
740,84	567,29
742,74	497,66
744,65	307,20
746,55	561,14
748,46	514,04
750,36	641,01
752,27	428,03
754,17	505,85
756,07	417,79
757,97	591,86
759,87	612,34
761,77	434,17
763,67	368,63
765,57	358,39
767,47	636,92
769,37	577,53
771,26	688,12
773,16	460,79
775,06	503,80
776,95	292,86
778,84	767,99
780,74	530,42
782,63	344,06
784,52	581,62
786,41	679,93
788,30	440,31
790,19	669,69
792,08	624,63
793,97	657,40
795,86	419,83
797,75	460,79
799,63	299,00
801,52	536,57
803,41	516,09
805,29	598,01
807,18	532,47
809,06	745,46
810,94	645,11
812,82	497,66
814,70	452,60
816,59	475,13
818,47	638,97
820,35	569,34
822,22	413,69
824,10	585,72
825,98	610,29
827,86	428,03
829,73	684,02
831,61	514,04
833,48	483,32
835,36	575,48
837,23	790,52
839,10	686,07
840,98	501,75
842,85	534,52
844,72	563,19
846,59	552,95
848,46	706,55
850,33	499,70
852,20	604,15
854,06	860,15
855,93	905,20
857,80	851,95
859,66	882,67
861,53	1048,56
863,39	1232,88
865,26	1624,04
867,12	1929,19
868,98	2308,06
870,84	2619,35
872,71	3092,43
874,57	3405,77
876,43	3837,89
878,29	4216,77
880,14	4319,17
882,00	4022,21
883,86	3870,66
885,72	3952,58
887,57	3393,48
889,43	3364,81
891,28	2723,80
893,14	2392,03
894,99	2406,36
896,84	1896,42
898,69	1550,31
900,55	1374,19
902,40	1290,22
904,25	856,05
906,10	1005,55
907,95	675,83
909,79	686,07
911,64	671,73
913,49	534,52
915,34	638,97
917,18	620,53
919,03	651,25
920,87	673,78
922,71	677,88
924,56	577,53
926,40	872,43
928,24	520,18
930,08	440,31
931,92	565,24
933,76	630,77
935,60	645,11
937,44	702,45
939,28	483,32
941,12	344,06
942,95	516,09
944,79	362,49
946,62	452,60
948,46	448,51
950,29	641,01
952,13	387,07
953,96	413,69
955,79	589,82
957,62	454,65
959,46	514,04
961,29	706,55
963,12	544,76
964,94	319,48
966,77	489,46
968,60	495,61
970,43	595,96
972,25	405,50
974,08	557,05
975,91	522,23
977,73	393,21
979,55	282,62
981,38	585,72
983,20	458,74
985,02	524,28
986,84	550,90
988,66	491,51
990,49	458,74
992,30	563,19
994,12	360,44
995,94	577,53
997,76	473,08
999,58	567,29
1001,39	583,67
1003,21	391,16
1005,02	595,96
1006,84	499,70
1008,65	552,95
1010,47	690,17
1012,28	587,77
1014,09	651,25
1015,90	649,21
1017,71	577,53
1019,52	659,45
1021,33	604,15
1023,14	606,20
1024,95	737,27
1026,76	722,93
1028,56	722,93
1030,37	782,32
1032,18	841,72
1033,98	980,98
1035,79	1011,70
1037,59	1101,81
1039,39	1083,38
1041,20	1142,77
1043,00	1415,15
1044,80	1312,75
1046,60	1269,74
1048,40	1497,07
1050,20	1419,24
1052,00	1449,96
1053,80	1257,45
1055,59	1226,73
1057,39	1136,62
1059,19	1259,50
1060,98	1075,18
1062,78	1259,50
1064,57	903,15
1066,37	1492,97
1068,16	1261,55
1069,95	1333,23
1071,75	1124,33
1073,54	1236,97
1075,33	1404,91
1077,12	1529,83
1078,91	1693,67
1080,70	1447,91
1082,48	1777,64
1084,27	1640,42
1086,06	1804,26
1087,85	1648,61
1089,63	1945,57
1091,42	1857,51
1093,20	1671,14
1094,99	1572,84
1096,77	1298,41
1098,55	1468,39
1100,33	1314,80
1102,12	1220,59
1103,90	1261,55
1105,68	1038,32
1107,46	942,07
1109,24	892,91
1111,01	757,75
1112,79	911,35
1114,57	978,93
1116,35	712,69
1118,12	954,35
1119,90	987,12
1121,67	747,51
1123,45	731,12
1125,22	587,77
1126,99	745,46
1128,77	698,36
1130,54	718,84
1132,31	612,34
1134,08	694,26
1135,85	665,59
1137,62	608,25
1139,39	559,10
1141,15	518,14
1142,92	604,15
1144,69	434,17
1146,46	436,22
1148,22	444,41
1149,99	716,79
1151,75	559,10
1153,51	489,46
1155,28	579,58
1157,04	479,22
1158,80	516,09
1160,56	567,29
1162,32	550,90
1164,08	401,40
1165,84	432,12
1167,60	333,82
1169,36	389,11
1171,12	395,26
1172,88	368,63
1174,63	462,84
1176,39	524,28
1178,14	235,52
1179,90	495,61
1181,65	503,80
1183,41	450,55
1185,16	499,70
1186,91	430,07
1188,66	448,51
1190,41	483,32
1192,16	489,46
1193,91	350,20
1195,66	382,97
1197,41	434,17
1199,16	493,56
1200,91	643,06
1202,66	444,41
1204,40	403,45
1206,15	256,00
1207,89	210,94
1209,64	325,63
1211,38	389,11
1213,12	444,41
1214,87	479,22
1216,61	280,57
1218,35	378,87
1220,09	350,20
1221,83	460,79
1223,57	366,59
1225,31	514,04
1227,05	303,10
1228,79	491,51
1230,52	303,10
1232,26	342,01
1234,00	382,97
1235,73	493,56
1237,47	548,86
1239,20	473,08
1240,94	477,18
1242,67	581,62
1244,40	583,67
1246,13	577,53
1247,86	567,29
1249,60	493,56
1251,33	567,29
1253,06	542,71
1254,78	456,70
1256,51	462,84
1258,24	593,91
1259,97	647,16
1261,69	604,15
1263,42	686,07
1265,15	518,14
1266,87	540,66
1268,59	761,84
1270,32	802,80
1272,04	886,77
1273,76	899,06
1275,49	851,95
1277,21	911,35
1278,93	747,51
1280,65	958,45
1282,37	1032,18
1284,09	851,95
1285,81	892,91
1287,52	686,07
1289,24	776,18
1290,96	724,98
1292,67	526,33
1294,39	641,01
1296,10	557,05
1297,82	534,52
1299,53	657,40
1301,24	651,25
1302,96	497,66
1304,67	718,84
1306,38	417,79
1308,09	571,38
1309,80	516,09
1311,51	364,54
1313,22	495,61
1314,93	745,46
1316,64	497,66
1318,34	487,42
1320,05	378,87
1321,75	452,60
1323,46	481,27
1325,17	528,38
1326,87	538,62
1328,57	305,15
1330,28	589,82
1331,98	346,11
1333,68	440,31
1335,38	552,95
1337,08	579,58
1338,78	487,42
1340,48	450,55
1342,18	626,68
1343,88	409,59
1345,58	569,34
1347,28	503,80
1348,97	649,21
1350,67	516,09
1352,36	405,50
1354,06	544,76
1355,75	468,98
1357,45	471,03
1359,14	567,29
1360,83	458,74
1362,53	657,40
1364,22	548,86
1365,91	331,77
1367,60	591,86
1369,29	587,77
1370,98	507,90
1372,67	473,08
1374,35	417,79
1376,04	770,04
1377,73	825,33
1379,41	690,17
1381,10	735,22
1382,79	653,30
1384,47	641,01
1386,15	749,56
1387,84	583,67
1389,52	634,87
1391,20	628,73
1392,88	559,10
1394,57	571,38
1396,25	661,49
1397,93	739,32
1399,61	614,39
1401,28	743,41
1402,96	741,36
1404,64	655,35
1406,32	745,46
1407,99	700,41
1409,67	796,66
1411,35	675,83
1413,02	634,87
1414,70	729,08
1416,37	612,34
1418,04	872,43
1419,71	675,83
1421,39	712,69
1423,06	827,38
1424,73	1005,55
1426,40	866,29
1428,07	825,33
1429,74	1009,65
1431,41	837,62
1433,08	1167,34
1434,74	948,21
1436,41	995,31
1438,08	989,17
1439,74	976,88
1441,41	1064,94
1443,07	1325,04
1444,74	1339,37
1446,40	1433,58
1448,06	1611,75
1449,72	1818,60
1451,39	1900,51
1453,05	1984,48
1454,71	2217,95
1456,37	2033,63
1458,03	1853,41
1459,69	1927,14
1461,35	1994,72
1463,00	1640,42
1464,66	1587,18
1466,32	1384,43
1467,97	1501,16
1469,63	1343,47
1471,28	1212,40
1472,94	1226,73
1474,59	1058,80
1476,25	1128,43
1477,90	964,59
1479,55	1132,53
1481,20	1060,85
1482,85	1294,32
1484,50	18,43
1486,15	1030,13
1487,80	772,08
1489,45	899,06
1491,10	884,72
1492,75	931,83
1494,40	780,28
1496,04	796,66
1497,69	608,25
1499,33	722,93
1500,98	684,02
1502,62	849,91
1504,27	593,91
1505,91	602,10
1507,55	602,10
1509,19	710,65
1510,84	411,64
1512,48	770,04
1514,12	565,24
1515,76	790,52
1517,40	481,27
1519,04	507,90
1520,67	622,58
1522,31	526,33
1523,95	616,44
1525,59	759,80
1527,22	448,51
1528,86	598,01
1530,49	546,81
1532,13	561,14
1533,76	638,97
1535,39	526,33
1537,03	536,57
1538,66	499,70
1540,29	393,21
1541,92	618,49
1543,55	477,18
1545,18	446,46
1546,81	550,90
1548,44	468,98
1550,07	610,29
1551,70	393,21
1553,32	393,21
1554,95	628,73
1556,58	542,71
1558,20	550,90
1559,83	632,82
1561,45	466,94
1563,07	344,06
1564,70	450,55
1566,32	495,61
1567,94	505,85
1569,56	526,33
1571,19	514,04
1572,81	348,15
1574,43	522,23
1576,05	356,35
1577,66	552,95
1579,28	546,81
1580,90	401,40
1582,52	657,40
1584,14	466,94
1585,75	571,38
1587,37	372,73
1588,98	342,01
1590,60	245,76
1592,21	583,67
1593,82	565,24
1595,44	598,01
1597,05	448,51
1598,66	561,14
1600,27	260,09
1601,88	432,12
1603,49	344,06
1605,10	577,53
1606,71	405,50
1608,32	446,46
1609,93	552,95
1611,54	485,37
1613,14	387,07
1614,75	495,61
1616,36	598,01
1617,96	579,58
1619,57	561,14
1621,17	413,69
1622,77	583,67
1624,38	407,55
1625,98	641,01
1627,58	286,72
1629,18	579,58
1630,78	362,49
1632,38	548,86
1633,98	389,11
1635,58	479,22
1637,18	471,03
1638,78	335,87
1640,38	509,94
1641,98	485,37
1643,57	425,98
1645,17	462,84
1646,76	425,98
1648,36	487,42
1649,95	497,66
1651,55	618,49
1653,14	434,17
1654,73	407,55
1656,33	362,49
1657,92	518,14
1659,51	450,55
1661,10	378,87
1662,69	511,99
1664,28	411,64
1665,87	489,46
1667,46	301,05
1669,05	561,14
1670,63	421,88
1672,22	342,01
1673,81	409,59
1675,39	319,48
1676,98	368,63
1678,56	442,36
1680,15	378,87
1681,73	450,55
1683,31	282,62
1684,90	466,94
1686,48	497,66
1688,06	329,72
1689,64	522,23
1691,22	511,99
1692,80	489,46
1694,38	251,90
1695,96	337,91
1697,54	460,79
1699,12	358,39
1700,69	311,29
1702,27	419,83
1703,85	256,00
1705,42	423,93
1707,00	258,04
1708,57	456,70
1710,15	419,83
1711,72	292,86
1713,29	329,72
1714,87	311,29
1716,44	417,79
1718,01	309,24
1719,58	219,13
1721,15	393,21
1722,72	407,55
1724,29	524,28
1725,86	456,70
1727,43	356,35
1729,00	499,70
1730,56	339,96
1732,13	507,90
1733,70	456,70
1735,26	366,59
1736,83	425,98
1738,39	487,42
1739,96	327,68
1741,52	141,31
1743,08	391,16
1744,65	290,81
1746,21	301,05
1747,77	346,11
1749,33	499,70
1750,89	286,72
1752,45	329,72
1754,01	354,30
1755,57	368,63
1757,13	278,52
1758,69	380,92
1760,24	313,34
1761,80	311,29
1763,36	352,25
1764,91	188,41
1766,47	188,41
1768,02	212,99
1769,58	307,20
1771,13	292,86
1772,68	391,16
1774,24	350,20
1775,79	217,08
1777,34	313,34
1778,89	356,35
1780,44	366,59
1781,99	235,52
1783,54	266,24
1785,09	278,52
1786,64	268,28
1788,19	489,46
1789,73	256,00
1791,28	430,07
1792,83	335,87
1794,37	428,03
1795,92	485,37
1797,46	321,53
1799,01	399,35
1800,55	276,48
1802,09	307,20
1803,64	290,81
1805,18	374,78
1806,72	342,01
1808,26	294,91
1809,80	215,04
1811,34	167,93
1812,88	514,04
1814,42	247,80
1815,96	206,84
1817,50	305,15
1819,04	272,38
1820,57	231,42
1822,11	387,07
1823,65	292,86
1825,18	294,91
1826,72	366,59
1828,25	309,24
1829,78	360,44
1831,32	258,04
1832,85	280,57
1834,38	243,71
1835,92	360,44
1837,45	403,45
1838,98	272,38
1840,51	325,63
1842,04	337,91
1843,57	393,21
1845,10	299,00
1846,62	290,81
1848,15	313,34
1849,68	477,18
1851,21	221,18
1852,73	251,90
1854,26	180,22
1855,78	237,56
1857,31	178,17
1858,83	292,86
1860,36	491,51
1861,88	274,43
1863,40	286,72
1864,92	288,76
1866,45	337,91
1867,97	270,33
1869,49	303,10
1871,01	421,88
1872,53	423,93
1874,05	391,16
1875,57	272,38
1877,08	307,20
1878,60	122,88
1880,12	219,13
1881,64	278,52
1883,15	274,43
1884,67	206,84
1886,18	413,69
1887,70	69,63
1889,21	292,86
1890,72	165,89
1892,24	364,54
1893,75	143,36
1895,26	176,13
1896,77	198,65
1898,28	301,05
1899,79	327,68
1901,30	364,54
1902,81	258,04
1904,32	534,52
1905,83	200,70
1907,34	241,66
1908,85	358,39
1910,35	251,90
1911,86	342,01
1913,37	399,35
1914,87	251,90
1916,38	360,44
1917,88	206,84
1919,39	155,65
1920,89	362,49
1922,39	333,82
1923,89	362,49
1925,40	292,86
1926,90	434,17
1928,40	303,10
1929,90	335,87
1931,40	253,95
1932,90	204,80
1934,40	323,58
1935,90	352,25
1937,39	202,75
1938,89	342,01
1940,39	301,05
1941,89	204,80
1943,38	198,65
1944,88	385,02
1946,37	215,04
1947,87	188,41
1949,36	309,24
1950,85	335,87
1952,35	174,08
1953,84	274,43
1955,33	176,13
1956,82	342,01
1958,31	278,52
1959,80	387,07
1961,29	299,00
1962,78	233,47
1964,27	325,63
1965,76	274,43
1967,25	329,72
1968,74	329,72
1970,22	188,41
1971,71	272,38
1973,20	274,43
1974,68	239,61
1976,17	491,51
1977,65	421,88
1979,14	237,56
1980,62	329,72
1982,10	71,68
1983,58	176,13
1985,07	243,71
1986,55	249,85
1988,03	192,51
1989,51	184,32
1990,99	235,52
1992,47	292,86
1993,95	466,94
1995,43	370,68
1996,91	225,28
1998,38	249,85
1999,86	139,26
2001,34	337,91
2002,81	337,91
2004,29	432,12
2005,76	260,09
2007,24	434,17
2008,71	126,97
2010,19	272,38
2011,66	307,20
2013,13	342,01
2014,60	346,11
2016,08	258,04
2017,55	372,73
2019,02	212,99
2020,49	282,62
2021,96	268,28
2023,43	233,47
2024,90	114,69
2026,36	346,11
2027,83	329,72
2029,30	337,91
2030,77	-286,72
2032,23	317,44
2033,70	206,84
2035,16	342,01
2036,63	333,82
2038,09	348,15
2039,56	296,96
2041,02	200,70
2042,48	307,20
2043,95	366,59
2045,41	344,06
2046,87	327,68
2048,33	368,63
2049,79	372,73
2051,25	311,29
2052,71	303,10
2054,17	364,54
2055,63	237,56
2057,09	143,36
2058,54	296,96
2060,00	329,72
2061,46	309,24
2062,91	407,55
2064,37	346,11
2065,82	372,73
2067,28	251,90
2068,73	440,31
2070,19	460,79
2071,64	354,30
2073,09	299,00
2074,54	96,25
2076,00	264,19
2077,45	333,82
2078,90	266,24
2080,35	12,29
2081,80	131,07
2083,25	407,55
2084,70	241,66
2086,14	311,29
2087,59	303,10
2089,04	198,65
2090,49	348,15
2091,93	430,07
2093,38	344,06
2094,83	30,72
2096,27	411,64
2097,71	167,93
2099,16	393,21
2100,60	202,75
2102,05	212,99
2103,49	405,50
2104,93	337,91
2106,37	391,16
2107,81	186,37
2109,25	229,37
2110,69	262,14
2112,13	362,49
2113,57	272,38
2115,01	487,42
2116,45	380,92
2117,89	266,24
2119,33	313,34
2120,76	452,60
2122,20	194,56
2123,63	491,51
2125,07	268,28
2126,51	315,39
2127,94	274,43
2129,37	208,89
2130,81	309,24
2132,24	202,75
2133,67	342,01
2135,11	161,79
2136,54	231,42
2137,97	303,10
2139,40	329,72
2140,83	266,24
2142,26	249,85
2143,69	329,72
2145,12	258,04
2146,55	253,95
2147,97	284,67
2149,40	382,97
2150,83	286,72
2152,25	243,71
2153,68	296,96
2155,11	307,20
2156,53	161,79
2157,96	382,97
2159,38	188,41
2160,80	354,30
2162,23	200,70
2163,65	284,67
2165,07	376,83
2166,49	305,15
2167,91	178,17
2169,33	276,48
2170,75	122,88
2172,17	202,75
2173,59	284,67
2175,01	317,44
2176,43	219,13
2177,85	208,89
2179,27	440,31
2180,68	272,38
2182,10	239,61
2183,52	212,99
2184,93	262,14
2186,35	690,17
2187,76	327,68
2189,18	307,20
2190,59	260,09
2192,00	321,53
2193,42	253,95
2194,83	233,47
2196,24	325,63
2197,65	305,15
2199,06	315,39
2200,47	245,76
2201,88	317,44
2203,29	231,42
2204,70	536,57
2206,11	292,86
2207,52	290,81
2208,93	245,76
2210,33	284,67
2211,74	262,14
2213,15	192,51
2214,55	395,26
2215,96	245,76
2217,36	122,88
2218,77	135,17
2220,17	235,52
2221,57	473,08
2222,98	415,74
2224,38	174,08
2225,78	135,17
2227,18	20,48
2228,58	290,81
2229,99	120,83
2231,39	274,43
2232,79	380,92
2234,18	239,61
2235,58	215,04
2236,98	184,32
2238,38	96,25
2239,78	364,54
2241,17	403,45
2242,57	364,54
2243,97	464,89
2245,36	223,23
2246,76	135,17
2248,15	182,27
2249,55	194,56
2250,94	137,21
2252,33	180,22
2253,73	274,43
2255,12	92,16
2256,51	339,96
2257,90	399,35
2259,29	315,39
2260,68	350,20
2262,07	163,84
2263,46	237,56
2264,85	294,91
2266,24	245,76
2267,63	428,03
2269,02	253,95
2270,40	172,03
2271,79	264,19
2273,18	219,13
2274,56	245,76
2275,95	141,31
2277,33	176,13
2278,72	86,01
2280,10	192,51
2281,49	301,05
2282,87	241,66
2284,25	241,66
2285,63	237,56
2287,02	167,93
2288,40	272,38
2289,78	217,08
2291,16	200,70
2292,54	299,00
2293,92	270,33
2295,30	112,64
2296,68	217,08
2298,05	71,68
2299,43	229,37
2300,81	212,99
2302,19	444,41
2303,56	186,37
2304,94	301,05
2306,31	344,06
2307,69	284,67
2309,06	299,00
2310,44	251,90
2311,81	262,14
2313,19	198,65
2314,56	262,14
2315,93	354,30
2317,30	407,55
2318,67	313,34
2320,04	235,52
2321,41	284,67
2322,78	190,46
2324,15	208,89
2325,52	307,20
2326,89	108,54
2328,26	221,18
2329,63	96,25
2331,00	278,52
2332,36	274,43
2333,73	200,70
2335,09	235,52
2336,46	276,48
2337,83	90,11
2339,19	57,34
2340,55	106,49
2341,92	149,50
2343,28	225,28
2344,64	231,42
2346,01	333,82
2347,37	419,83
2348,73	186,37
2350,09	192,51
2351,45	323,58
2352,81	180,22
2354,17	-15376,15
2355,53	208,89
2356,89	219,13
2358,25	40,96
2359,61	118,78
2360,96	114,69
2362,32	260,09
2363,68	90,11
2365,03	311,29
2366,39	331,77
2367,74	77,82
2369,10	280,57
2370,45	108,54
2371,81	180,22
2373,16	153,60
2374,51	268,28
2375,86	229,37
2377,22	227,32
2378,57	98,30
2379,92	227,32
2381,27	264,19
2382,62	260,09
2383,97	313,34
2385,32	145,41
2386,67	245,76
2388,02	59,39
2389,37	61,44
2390,71	286,72
2392,06	307,20
2393,41	225,28
2394,75	143,36
2396,10	202,75
2397,44	165,89
2398,79	102,40
2400,13	321,53
2401,48	245,76
2402,82	249,85
2404,17	178,17
2405,51	319,48
2406,85	321,53
2408,19	425,98
2409,53	100,35
2410,87	131,07
2412,22	212,99
2413,56	188,41
2414,89	83,97
2416,23	43,01
2417,57	182,27
2418,91	75,77
2420,25	268,28
2421,59	245,76
2422,92	190,46
2424,26	126,97
2425,60	155,65
2426,93	122,88
2428,27	192,51
2429,60	98,30
2430,94	176,13
2432,27	409,59
2433,60	169,98
2434,94	278,52
2436,27	178,17
2437,60	143,36
2438,93	180,22
2440,27	178,17
2441,60	210,94
2442,93	169,98
2444,26	231,42
2445,59	-88,06
2446,92	231,42
2448,24	63,49
2449,57	116,73
2450,90	286,72
2452,23	137,21
2453,55	81,92
2454,88	319,48
2456,21	225,28
2457,53	118,78
2458,86	215,04
2460,18	79,87
2461,51	325,63
2462,83	184,32
2464,15	106,49
2465,48	124,93
2466,80	163,84
2468,12	403,45
2469,44	241,66
2470,76	286,72
2472,09	204,80
2473,41	122,88
2474,73	122,88
2476,05	137,21
2477,36	206,84
2478,68	319,48
2480,00	141,31
2481,32	260,09
2482,64	94,21
2483,95	169,98
2485,27	131,07
2486,59	331,77
2487,90	77,82
2489,22	198,65
2490,53	210,94
2491,85	251,90
2493,16	233,47
2494,47	182,27
2495,79	139,26
2497,10	231,42
2498,41	219,13
2499,72	110,59
2501,03	149,50
2502,35	110,59
2503,66	434,17
2504,97	256,00
2506,28	204,80
2507,59	317,44
2508,89	83,97
2510,20	204,80
2511,51	169,98
2512,82	323,58
2514,12	294,91
2515,43	286,72
2516,74	118,78
2518,04	270,33
2519,35	333,82
2520,65	229,37
2521,96	229,37
2523,26	256,00
2524,57	229,37
2525,87	417,79
2527,17	247,80
2528,47	167,93
2529,78	190,46
2531,08	225,28
2532,38	270,33
2533,68	251,90
2534,98	73,73
2536,28	239,61
2537,58	149,50
2538,88	131,07
2540,18	284,67
2541,47	358,39
2542,77	186,37
2544,07	153,60
2545,37	176,13
2546,66	141,31
2547,96	139,26
2549,25	507,90
2550,55	194,56
2551,84	206,84
2553,14	243,71
2554,43	215,04
2555,72	200,70
2557,02	286,72
2558,31	229,37
2559,60	296,96
2560,89	167,93
2562,18	313,34
2563,48	258,04
2564,77	55,30
2566,06	382,97
2567,35	428,03
2568,63	149,50
2569,92	241,66
2571,21	296,96
2572,50	202,75
2573,79	165,89
2575,07	192,51
2576,36	10,24
2577,65	225,28
2578,93	161,79
2580,22	40,96
2581,50	100,35
2582,79	452,60
2584,07	352,25
2585,36	196,60
2586,64	194,56
2587,92	243,71
2589,20	266,24
2590,49	124,93
2591,77	182,27
2593,05	210,94
2594,33	249,85
2595,61	249,85
2596,89	313,34
2598,17	131,07
2599,45	258,04
2600,73	268,28
2602,00	215,04
2603,28	311,29
2604,56	114,69
2605,84	264,19
2607,11	43,01
2608,39	151,55
2609,67	-36,86
2610,94	311,29
2612,22	169,98
2613,49	106,49
2614,76	301,05
2616,04	165,89
2617,31	92,16
2618,58	372,73
2619,86	305,15
2621,13	296,96
2622,40	522,23
2623,67	251,90
2624,94	333,82
2626,21	212,99
2627,48	176,13
2628,75	188,41
2630,02	339,96
2631,29	172,03
2632,56	282,62
2633,82	284,67
2635,09	79,87
2636,36	294,91
2637,63	262,14
2638,89	157,69
2640,16	202,75
2641,42	239,61
2642,69	169,98
2643,95	174,08
2645,22	210,94
2646,48	178,17
2647,74	356,35
2649,01	83,97
2650,27	286,72
2651,53	258,04
2652,79	280,57
2654,05	280,57
2655,31	153,60
2656,57	215,04
2657,83	114,69
2659,09	282,62
2660,35	217,08
2661,61	227,32
2662,87	204,80
2664,13	174,08
2665,38	118,78
2666,64	233,47
2667,90	241,66
2669,15	290,81
2670,41	145,41
2671,67	294,91
2672,92	307,20
2674,17	333,82
2675,43	296,96
2676,68	288,76
2677,94	141,31
2679,19	251,90
2680,44	260,09
2681,69	151,55
2682,95	354,30
2684,20	110,59
2685,45	-59,39
2686,70	389,11
2687,95	270,33
2689,20	370,68
2690,45	311,29
2691,70	290,81
2692,94	368,63
2694,19	376,83
2695,44	471,03
2696,69	292,86
2697,93	380,92
2699,18	319,48
2700,43	395,26
2701,67	458,74
2702,92	368,63
2704,16	534,52
2705,41	417,79
2706,65	514,04
2707,89	401,40
2709,14	460,79
2710,38	669,69
2711,62	593,91
2712,86	487,42
2714,11	686,07
2715,35	690,17
2716,59	778,23
2717,83	669,69
2719,07	665,59
2720,31	661,49
2721,55	704,50
2722,78	737,27
2724,02	817,14
2725,26	880,63
2726,50	563,19
2727,73	870,39
2728,97	856,05
2730,21	720,88
2731,44	880,63
2732,68	555,00
2733,91	792,56
2735,15	745,46
2736,38	720,88
2737,62	864,24
2738,85	763,89
2740,08	731,12
2741,32	702,45
2742,55	831,48
2743,78	651,25
2745,01	661,49
2746,24	770,04
2747,47	530,42
2748,70	663,54
2749,93	776,18
2751,16	598,01
2752,39	649,21
2753,62	716,79
2754,85	536,57
2756,08	735,22
2757,30	530,42
2758,53	636,92
2759,76	727,03
2760,98	727,03
2762,21	739,32
2763,43	690,17
2764,66	653,30
2765,88	630,77
2767,11	632,82
2768,33	460,79
2769,55	610,29
2770,78	493,56
2772,00	473,08
2773,22	600,05
2774,44	602,10
2775,67	571,38
2776,89	532,47
2778,11	516,09
2779,33	579,58
2780,55	692,21
2781,77	477,18
2782,99	436,22
2784,20	499,70
2785,42	598,01
2786,64	460,79
2787,86	722,93
2789,07	600,05
2790,29	534,52
2791,51	645,11
2792,72	600,05
2793,94	444,41
2795,15	542,71
2796,37	503,80
2797,58	495,61
2798,80	651,25
2800,01	491,51
2801,22	735,22
2802,44	622,58
2803,65	587,77
2804,86	741,36
2806,07	661,49
2807,28	704,50
2808,49	659,45
2809,70	518,14
2810,91	802,80
2812,12	657,40
2813,33	585,72
2814,54	802,80
2815,75	722,93
2816,96	886,77
2818,16	782,32
2819,37	708,60
2820,58	813,04
2821,78	798,71
2822,99	942,07
2824,20	1075,18
2825,40	925,68
2826,61	944,11
2827,81	1026,03
2829,01	1099,76
2830,22	1046,51
2831,42	1058,80
2832,62	1099,76
2833,83	1239,02
2835,03	1232,88
2836,23	1228,78
2837,43	1484,78
2838,63	1376,24
2839,83	1478,63
2841,03	1503,21
2842,23	1490,92
2843,43	1363,95
2844,63	1419,24
2845,83	1603,56
2847,03	1499,11
2848,22	1521,64
2849,42	1521,64
2850,62	1636,33
2851,81	1728,49
2853,01	1652,71
2854,21	1726,44
2855,40	1673,19
2856,60	1783,78
2857,79	1927,14
2858,99	2066,40
2860,18	2074,59
2861,37	2185,18
2862,57	2265,05
2863,76	2306,01
2864,95	2439,13
2866,14	2588,63
2867,33	2848,72
2868,52	3348,43
2869,72	3352,52
2870,91	3735,50
2872,10	3923,91
2873,28	4184,00
2874,47	4507,58
2875,66	4876,21
2876,85	5091,25
2878,04	5412,78
2879,23	5611,43
2880,41	5711,78
2881,60	5554,09
2882,79	5650,35
2883,97	5762,98
2885,16	5877,67
2886,34	5965,73
2887,53	5783,46
2888,71	5840,81
2889,90	5715,88
2891,08	5765,03
2892,26	5623,72
2893,45	5531,56
2894,63	5576,62
2895,81	5423,02
2896,99	5345,20
2898,17	5148,59
2899,36	5201,84
2900,54	5128,11
2901,72	4954,04
2902,90	4745,14
2904,08	4644,79
2905,26	4769,72
2906,43	4562,87
2907,61	4583,35
2908,79	4503,48
2909,97	4728,76
2911,14	4532,15
2912,32	4401,08
2913,50	4605,88
2914,67	4499,39
2915,85	4706,23
2917,02	4716,47
2918,20	4689,85
2919,37	5083,06
2920,55	5431,21
2921,72	5572,52
2922,90	6365,09
2924,07	6535,07
2925,24	7319,44
2926,41	8140,68
2927,58	8331,14
2928,76	8783,74
2929,93	9084,79
2931,10	9584,49
2932,27	9510,77
2933,44	10127,21
2934,61	10286,95
2935,78	10157,92
2936,95	9357,17
2938,11	9416,56
2939,28	9467,76
2940,45	8820,60
2941,62	8732,54
2942,78	8011,65
2943,95	7559,05
2945,12	7317,39
2946,28	6942,61
2947,45	6381,47
2948,61	6098,85
2949,78	5756,84
2950,94	5183,41
2952,10	5083,06
2953,27	4876,21
2954,43	4575,16
2955,59	4186,05
2956,76	3973,06
2957,92	3878,85
2959,08	3715,02
2960,24	3649,48
2961,40	3649,48
2962,56	3545,03
2963,72	3469,26
2964,88	3743,69
2966,04	3657,67
2967,20	3704,78
2968,36	3895,24
2969,52	3858,37
2970,67	4112,32
2971,83	4132,80
2972,99	4206,53
2974,14	4210,62
2975,30	4335,55
2976,46	4628,41
2977,61	4480,96
2978,77	4480,96
2979,92	4429,76
2981,08	4308,93
2982,23	4480,96
2983,38	4339,65
2984,54	4353,98
2985,69	4124,61
2986,84	3979,20
2987,99	3919,81
2989,15	3407,82
2990,30	3465,16
2991,45	3209,17
2992,60	3067,86
2993,75	3110,86
2994,90	2731,99
2996,05	2766,81
2997,20	2566,10
2998,35	2355,16
2999,49	2224,09
3000,64	2152,42
3001,79	2076,64
3002,94	1861,60
3004,08	1798,12
3005,23	1597,42
3006,38	1652,71
3007,52	1746,92
3008,67	1437,67
3009,81	1474,54
3010,96	1337,32
3012,10	1351,66
3013,25	1398,76
3014,39	1468,39
3015,53	1382,38
3016,67	1292,27
3017,82	1339,37
3018,96	1226,73
3020,10	1144,81
3021,24	1171,44
3022,38	958,45
3023,52	1220,59
3024,66	1157,10
3025,80	1210,35
3026,94	1263,60
3028,08	1300,46
3029,22	1116,14
3030,36	1138,67
3031,50	1214,45
3032,63	1066,99
3033,77	1226,73
3034,91	1060,85
3036,04	878,58
3037,18	1214,45
3038,32	1329,13
3039,45	1171,44
3040,59	1097,71
3041,72	1138,67
3042,86	1048,56
3043,99	1126,38
3045,12	1247,21
3046,26	1212,40
3047,39	1257,45
3048,52	1185,77
3049,65	1173,49
3050,78	1171,44
3051,92	1193,97
3053,05	1173,49
3054,18	1277,93
3055,31	1241,07
3056,44	1093,62
3057,57	1361,90
3058,70	1267,69
3059,82	1212,40
3060,95	1243,12
3062,08	1062,90
3063,21	1173,49
3064,34	1077,23
3065,46	1288,17
3066,59	1310,70
3067,71	1073,14
3068,84	1241,07
3069,97	1327,08
3071,09	1286,12
3072,22	1222,64
3073,34	1413,10
3074,46	1212,40
3075,59	1378,28
3076,71	1224,69
3077,83	1327,08
3078,96	1409,00
3080,08	1300,46
3081,20	1331,18
3082,32	1413,10
3083,44	1464,30
3084,56	1472,49
3085,68	1488,87
3086,80	1439,72
3087,92	1296,36
3089,04	1497,07
3090,16	1732,58
3091,28	1322,99
3092,40	1587,18
3093,51	1466,35
3094,63	1353,71
3095,75	1601,51
3096,87	1474,54
3097,98	1437,67
3099,10	1505,26
3100,21	1576,94
3101,33	1490,92
3102,44	1708,01
3103,56	1515,50
3104,67	1843,17
3105,79	1548,26
3106,90	1701,86
3108,01	1636,33
3109,12	1724,39
3110,24	1527,78
3111,35	1624,04
3112,46	1638,38
3113,57	1791,97
3114,68	1609,70
3115,79	1542,12
3116,90	1880,04
3118,01	1611,75
3119,12	1855,46
3120,23	1914,85
3121,34	1976,29
3122,45	1900,52
3123,56	1877,99
3124,66	1972,19
3125,77	1763,30
3126,88	2119,65
3127,98	1943,52
3129,09	2066,40
3130,20	1871,84
3131,30	2052,06
3132,41	1861,60
3133,51	2039,78
3134,61	2312,16
3135,72	2176,99
3136,82	2103,26
3137,93	2131,94
3139,03	2168,80
3140,13	2191,33
3141,23	2201,57
3142,33	2164,70
3143,44	2226,14
3144,54	2291,68
3145,64	2297,82
3146,74	2592,73
3147,84	2353,12
3148,94	2254,81
3150,04	2263,01
3151,14	2258,91
3152,23	2400,22
3153,33	2588,63
3154,43	2516,95
3155,53	2504,67
3156,63	2629,59
3157,72	2562,01
3158,82	2586,58
3159,91	2637,78
3161,01	2641,88
3162,11	2664,41
3163,20	2533,34
3164,30	2828,24
3165,39	2625,50
3166,48	2713,56
3167,58	2783,19
3168,67	2568,15
3169,76	2721,75
3170,86	2801,62
3171,95	2895,83
3173,04	2840,53
3174,13	2750,42
3175,22	2736,09
3176,31	2916,31
3177,40	3049,43
3178,49	2942,93
3179,58	2910,16
3180,67	2944,98
3181,76	2871,25
3182,85	2942,93
3183,94	3004,37
3185,03	2899,92
3186,11	2942,93
3187,20	2871,25
3188,29	2949,08
3189,37	3006,42
3190,46	3252,17
3191,55	2947,03
3192,63	2932,69
3193,72	3205,07
3194,80	3088,34
3195,89	2985,94
3196,97	3143,63
3198,05	3098,58
3199,14	3135,44
3200,22	3233,74
3201,30	3325,90
3202,38	3151,82
3203,47	3137,49
3204,55	3131,34
3205,63	3309,52
3206,71	3028,95
3207,79	3274,70
3208,87	3313,61
3209,95	3209,17
3211,03	3479,50
3212,11	3354,57
3213,19	3225,55
3214,27	3358,67
3215,34	3217,36
3216,42	3440,59
3217,50	3463,12
3218,58	3334,09
3219,65	3311,57
3220,73	3313,61
3221,80	3409,87
3222,88	3399,63
3223,96	3422,16
3225,03	3315,66
3226,10	3383,24
3227,18	3514,31
3228,25	3393,48
3229,33	3508,17
3230,40	3379,15
3231,47	3512,27
3232,54	3336,14
3233,62	3547,08
3234,69	3530,70
3235,76	3803,08
3236,83	3463,12
3237,90	3631,05
3238,97	3536,84
3240,04	3733,45
3241,11	3712,97
3242,18	3432,40
3243,25	3434,44
3244,32	3340,24
3245,39	3813,32
3246,45	3577,80
3247,52	3508,17
3248,59	3626,95
3249,66	3434,44
3250,72	3858,37
3251,79	3749,83
3252,85	3753,93
3253,92	3807,17
3254,98	3588,04
3256,05	3768,26
3257,11	3645,38
3258,18	3538,89
3259,24	3655,62
3260,30	3686,34
3261,37	3850,18
3262,43	3661,77
3263,49	3663,82
3264,55	3741,64
3265,62	3659,72
3266,68	3731,40
3267,74	3768,26
3268,80	3786,69
3269,86	3610,57
3270,92	3389,39
3271,98	3835,85
3273,04	3629,00
3274,10	3491,79
3275,16	3899,33
3276,21	3784,65
3277,27	3391,44
3278,33	3596,23
3279,39	3356,62
3280,44	3536,84
3281,50	3491,79
3282,56	3305,42
3283,61	3413,96
3284,67	3651,53
3285,72	3649,48
3286,78	3731,40
3287,83	3442,64
3288,88	3534,79
3289,94	3641,29
3290,99	3661,77
3292,04	3409,87
3293,10	3436,49
3294,15	3504,07
3295,20	3420,11
3296,25	3588,04
3297,30	3774,41
3298,36	3348,43
3299,41	3489,74
3300,46	3522,51
3301,51	3459,02
3302,56	3424,20
3303,61	3528,65
3304,65	3463,12
3305,70	3471,31
3306,75	3268,56
3307,80	3520,46
3308,85	3469,26
3309,89	3614,66
3310,94	3454,92
3311,99	3330,00
3313,03	3426,25
3314,08	3379,15
3315,12	3373,00
3316,17	3514,31
3317,21	3653,58
3318,26	3796,93
3319,30	3581,90
3320,35	3547,08
3321,39	3629,00
3322,43	3827,65
3323,48	3585,99
3324,52	3669,96
3325,56	3674,06
3326,60	3542,99
3327,64	3450,83
3328,68	3641,29
3329,73	3540,94
3330,77	3643,34
3331,81	3690,44
3332,85	3563,47
3333,88	3710,92
3334,92	3487,69
3335,96	3653,58
3337,00	3356,62
3338,04	3665,86
3339,08	3645,38
3340,11	3510,22
3341,15	3540,94
3342,19	3708,87
3343,22	3739,59
3344,26	3483,59
3345,30	3579,85
3346,33	3497,93
3347,37	3792,84
3348,40	3751,88
3349,43	3502,03
3350,47	3426,25
3351,50	3557,32
3352,54	3510,22
3353,57	3647,43
3354,60	3622,86
3355,63	3680,20
3356,67	3604,42
3357,70	3612,62
3358,73	3403,72
3359,76	3786,69
3360,79	3639,24
3361,82	3577,80
3362,85	3403,72
3363,88	3450,83
3364,91	3592,14
3365,94	3450,83
3366,97	3401,68
3367,99	3610,57
3369,02	3717,06
3370,05	3618,76
3371,08	3485,64
3372,10	3485,64
3373,13	3395,53
3374,16	3540,94
3375,18	3563,47
3376,21	3444,68
3377,23	3581,90
3378,26	3684,30
3379,28	3616,71
3380,31	3786,69
3381,33	3723,21
3382,35	3702,73
3383,38	3508,17
3384,40	3532,75
3385,42	3485,64
3386,45	3624,90
3387,47	3315,66
3388,49	3770,31
3389,51	3641,29
3390,53	3663,82
3391,55	3571,66
3392,57	3643,34
3393,59	3774,41
3394,61	3610,57
3395,63	3217,36
3396,65	3473,35
3397,67	3473,35
3398,69	3377,10
3399,70	3477,45
3400,72	3696,58
3401,74	3559,37
3402,76	3518,41
3403,77	3692,49
3404,79	3651,53
3405,80	3542,99
3406,82	3442,64
3407,83	3395,53
3408,85	3305,42
3409,86	3520,46
3410,88	3676,10
3411,89	3624,90
3412,91	3809,22
3413,92	3667,91
3414,93	3528,65
3415,94	3706,82
3416,96	3522,51
3417,97	3319,76
3418,98	3534,79
3419,99	3899,33
3421,00	3479,50
3422,01	3657,67
3423,02	3569,61
3424,03	3319,76
3425,04	3409,87
3426,05	3545,03
3427,06	3821,51
3428,07	3594,19
3429,08	3823,56
3430,09	3741,64
3431,09	3373,00
3432,10	3579,85
3433,11	3739,59
3434,12	3805,13
3435,12	3508,17
3436,13	3733,45
3437,13	3420,11
3438,14	3559,37
3439,14	3653,58
3440,15	3479,50
3441,15	3495,88
3442,16	3499,98
3443,16	3518,41
3444,16	3358,67
3445,17	3669,96
3446,17	3377,10
3447,17	3567,56
3448,17	3426,25
3449,18	3766,21
3450,18	3508,17
3451,18	3657,67
3452,18	3510,22
3453,18	3430,35
3454,18	3618,76
3455,18	3299,28
3456,18	3366,86
3457,18	3456,97
3458,18	3764,17
3459,17	3342,28
3460,17	3481,55
3461,17	3487,69
3462,17	3444,68
3463,17	3106,77
3464,16	3131,34
3465,16	3301,33
3466,15	3428,30
3467,15	3196,88
3468,15	3055,57
3469,14	3293,13
3470,14	3291,09
3471,13	3172,30
3472,13	3203,02
3473,12	3334,09
3474,11	3041,23
3475,11	3047,38
3476,10	3338,19
3477,09	3246,03
3478,08	3252,17
3479,08	3039,19
3480,07	2920,40
3481,06	2787,29
3482,05	2930,64
3483,04	2895,83
3484,03	3028,95
3485,02	2830,29
3486,01	3035,09
3487,00	2947,03
3487,99	2764,76
3488,98	2918,36
3489,97	2916,31
3490,95	2713,56
3491,94	2815,96
3492,93	2899,92
3493,92	2813,91
3494,90	2590,68
3495,89	2867,16
3496,88	2703,32
3497,86	2512,86
3498,85	2721,75
3499,83	2490,33
3500,82	2619,35
3501,80	2549,72
3502,79	2639,83
3503,77	2635,74
3504,75	2666,46
3505,74	2650,07
3506,72	2674,65
3507,70	2805,72
3508,68	2637,78
3509,67	2529,24
3510,65	2600,92
3511,63	2566,10
3512,61	2568,15
3513,59	2496,47
3514,57	2465,75
3515,55	2615,26
3516,53	2512,86
3517,51	2387,93
3518,49	2277,34
3519,47	2527,19
3520,45	2531,29
3521,42	2357,21
3522,40	2344,92
3523,38	2400,22
3524,36	2213,85
3525,33	2258,91
3526,31	2455,51
3527,29	2441,18
3528,26	2263,01
3529,24	2363,36
3530,21	2181,09
3531,19	2385,88
3532,16	2349,02
3533,14	2281,44
3534,11	2418,65
3535,08	2080,74
3536,06	2363,36
3537,03	2240,48
3538,00	2199,52
3538,98	2082,78
3539,95	2232,29
3540,92	2052,06
3541,89	2115,55
3542,86	2002,91
3543,83	2170,85
3544,80	2146,27
3545,77	2000,87
3546,74	1980,39
3547,71	1972,19
3548,68	2129,89
3549,65	1888,23
3550,62	1822,69
3551,59	1834,98
3552,56	2285,53
3553,52	1822,69
3554,49	1851,36
3555,46	1923,04
3556,42	1759,21
3557,39	2035,68
3558,36	1849,32
3559,32	1974,24
3560,29	1179,63
3561,25	1769,44
3562,22	1791,97
3563,18	1693,67
3564,15	1609,70
3565,11	1787,88
3566,07	1732,58
3567,04	1693,67
3568,00	1699,81
3568,96	1595,37
3569,92	1497,07
3570,89	1742,82
3571,85	1636,33
3572,81	1529,83
3573,77	1591,27
3574,73	1652,71
3575,69	1603,56
3576,65	1452,01
3577,61	1535,98
3578,57	1445,87
3579,53	1519,59
3580,49	1472,49
3581,45	1531,88
3582,40	1578,98
3583,36	1396,71
3584,32	1519,59
3585,28	1495,02
3586,23	1550,31
3587,19	1425,39
3588,15	1421,29
3589,10	1228,78
3590,06	1275,88
3591,01	1288,17
3591,97	1333,23
3592,92	1331,18
3593,88	1265,64
3594,83	1224,69
3595,78	1357,80
3596,74	1417,19
3597,69	1333,23
3598,64	1138,67
3599,60	1282,03
3600,55	1220,59
3601,50	1112,05
3602,45	1200,11
3603,40	1304,56
3604,35	1212,40
3605,31	1202,16
3606,26	1128,43
3607,21	1171,44
3608,16	1300,46
3609,10	1234,93
3610,05	1214,45
3611,00	1040,37
3611,95	1241,07
3612,90	1087,47
3613,85	1232,88
3614,79	1056,75
3615,74	1058,80
3616,69	913,39
3617,63	1097,71
3618,58	1206,25
3619,53	954,35
3620,47	1048,56
3621,42	1159,15
3622,36	1236,97
3623,31	1910,75
3624,25	1179,63
3625,20	1093,62
3626,14	1075,18
3627,08	1130,48
3628,03	1021,94
3628,97	1128,43
3629,91	985,07
3630,85	1056,75
3631,80	950,26
3632,74	1099,76
3633,68	966,64
3634,62	1042,42
3635,56	954,35
3636,50	1032,18
3637,44	1011,70
3638,38	1249,26
3639,32	894,96
3640,26	1007,60
3641,20	862,19
3642,14	948,21
3643,08	974,83
3644,01	1081,33
3644,95	829,43
3645,89	987,12
3646,83	755,70
3647,76	878,58
3648,70	868,34
3649,63	755,70
3650,57	796,66
3651,51	913,39
3652,44	825,33
3653,38	792,56
3654,31	696,31
3655,24	897,01
3656,18	698,36
3657,11	667,64
3658,05	835,57
3658,98	776,18
3659,91	835,57
3660,84	802,80
3661,78	739,32
3662,71	567,29
3663,64	782,32
3664,57	686,07
3665,50	626,68
3666,43	501,75
3667,36	657,40
3668,29	604,15
3669,22	673,78
3670,15	591,86
3671,08	583,67
3672,01	624,63
3672,94	538,62
3673,86	892,91
3674,79	677,88
3675,72	622,58
3676,65	434,17
3677,57	942,07
3678,50	581,62
3679,43	454,65
3680,35	610,29
3681,28	565,24
3682,20	350,20
3683,13	505,85
3684,05	329,72
3684,98	444,41
3685,90	319,48
3686,83	296,96
3687,75	516,09
3688,67	337,91
3689,60	358,39
3690,52	546,81
3691,44	333,82
3692,36	352,25
3693,28	407,55
3694,21	530,42
3695,13	356,35
3696,05	346,11
3696,97	356,35
3697,89	393,21
3698,81	276,48
3699,73	415,74
3700,65	145,41
3701,57	438,27
3702,48	360,44
3703,40	423,93
3704,32	208,89
3705,24	317,44
3706,16	530,42
3707,07	317,44
3707,99	317,44
3708,91	110,59
3709,82	311,29
3710,74	399,35
3711,66	342,01
3712,57	247,80
3713,49	266,24
3714,40	327,68
3715,31	180,22
3716,23	292,86
3717,14	178,17
3718,06	118,78
3718,97	192,51
3719,88	364,54
3720,80	194,56
3721,71	-7376,78
3722,62	188,41
3723,53	243,71
3724,44	151,55
3725,35	225,28
3726,26	165,89
3727,18	321,53
3728,09	36,86
3729,00	59,39
3729,91	174,08
3730,81	45,06
3731,72	161,79
3732,63	198,65
3733,54	151,55
3734,45	206,84
3735,36	147,45
3736,26	272,38
3737,17	198,65
3738,08	36,86
3738,99	118,78
3739,89	122,88
3740,80	198,65
3741,70	-40,96
3742,61	233,47
3743,51	57,34
3744,42	215,04
3745,32	38,91
3746,23	217,08
3747,13	301,05
3748,04	153,60
3748,94	147,45
3749,84	200,70
3750,74	229,37
3751,65	206,84
3752,55	180,22
3753,45	-53,25
3754,35	294,91
3755,25	225,28
3756,16	81,92
3757,06	169,98
3757,96	190,46
3758,86	186,37
3759,76	51,20
3760,66	151,55
3761,55	-61,44
3762,45	149,50
3763,35	247,80
3764,25	8,19
3765,15	198,65
3766,05	129,02
3766,94	188,41
3767,84	331,77
3768,74	63,49
3769,63	133,12
3770,53	-38,91
3771,43	368,63
3772,32	292,86
3773,22	14,34
3774,11	151,55
3775,01	61,44
3775,90	49,15
3776,80	61,44
3777,69	223,23
3778,58	112,64
3779,48	180,22
3780,37	92,16
3781,26	139,26
3782,16	151,55
3783,05	83,97
3783,94	79,87
3784,83	126,97
3785,72	206,84
3786,61	-30,72
3787,50	120,83
3788,39	161,79
3789,28	51,20
3790,17	28,67
3791,06	94,21
3791,95	110,59
3792,84	102,40
3793,73	163,84
3794,62	10,24
3795,51	313,34
3796,39	108,54
3797,28	92,16
3798,17	-6,14
3799,06	131,07
3799,94	65,53
3800,83	118,78
3801,71	88,06
3802,60	-30,72
3803,48	102,40
3804,37	77,82
3805,25	53,25
3806,14	77,82
3807,02	28,67
3807,91	51,20
3808,79	178,17
3809,67	206,84
3810,56	8,19
3811,44	88,06
3812,32	294,91
3813,20	108,54
3814,09	149,50
3814,97	155,65
3815,85	73,73
3816,73	133,12
3817,61	129,02
3818,49	71,68
3819,37	-10,24
3820,25	-63,49
3821,13	212,99
3822,01	176,13
3822,89	96,25
3823,77	200,70
3824,65	-18,43
3825,52	174,08
3826,40	-86,01
3827,28	147,45
3828,16	208,89
3829,03	221,18
3829,91	294,91
3830,79	198,65
3831,66	36,86
3832,54	-18,43
3833,41	153,60
3834,29	47,10
3835,16	196,61
3836,04	-28,67
3836,91	10,24
3837,79	161,79
3838,66	47,10
3839,53	200,70
3840,41	36,86
3841,28	137,21
3842,15	20,48
3843,02	184,32
3843,90	243,71
3844,77	172,03
3845,64	104,45
3846,51	147,45
3847,38	-43,01
3848,25	86,01
3849,12	51,20
3849,99	133,12
3850,86	2,05
3851,73	212,99
3852,60	122,88
3853,47	108,54
3854,34	32,77
3855,21	155,65
3856,07	-49,15
3856,94	169,98
3857,81	53,25
3858,68	28,67
3859,54	65,54
3860,41	100,35
3861,28	163,84
3862,14	92,16
3863,01	47,10
3863,87	0,00
3864,74	73,73
3865,60	114,69
3866,47	104,45
3867,33	-26,62
3868,19	120,83
3869,06	12,29
3869,92	83,97
3870,78	98,30
3871,65	198,65
3872,51	47,10
3873,37	-86,01
3874,23	83,97
3875,10	63,49
3875,96	30,72
3876,82	32,77
3877,68	-112,64
3878,54	108,54
3879,40	307,20
3880,26	63,49
3881,12	-53,25
3881,98	-49,15
3882,84	20,48
3883,70	430,07
3884,55	36,86
3885,41	61,44
3886,27	-59,39
3887,13	155,65
3887,99	40,96
3888,84	194,56
3889,70	223,23
3890,56	200,70
3891,41	206,84
3892,27	102,40
3893,12	153,60
3893,98	45,06
3894,83	129,02
3895,69	141,31
3896,54	30,72
3897,40	96,25
3898,25	149,50
3899,11	26,62
3899,96	36,86
3900,81	147,45
3901,66	143,36
3902,52	139,26
3903,37	186,37
3904,22	-77,82
3905,07	-4,10
3905,92	129,02
3906,78	36,86
3907,63	96,25
>>>>>End Processed Spectral Data<<<<<
