SpectraSuite Datei
++++++++++++++++++++++++++++++++++++
Datum: Wed Nov 28 12:49:13 CET 2018
Benutzer: Raman
Dark-Spektrum vorhanden: Ja
Referenz-Spektrum vorhanden: Ja
Zahl der probierten Teilspektren: 1
Spektrometer: USB4F00098
Integrationszeit (usec): 40000000 (USB4F00098)
Spektren Durchschnitt berechnet: 1 (USB4F00098)
Boxcar Glättung: 0 (USB4F00098)
Dunkelstromkorrektur: Nein (USB4F00098)
Puls/Lampe aktiviert: Nein (USB4F00098)
Correct for Detector Non-linearity: Nein (USB4F00098)
Streulichtkorrektur: Nein (USB4F00098)
Anzahl Pixel in verarbeitetem Spektrum: 3648
>>>>>Begin Processed Spectral Data<<<<<
-2184,52	-59,39
-2181,51	-59,39
-2178,50	-59,39
-2175,49	-24,58
-2172,49	36,86
-2169,48	348,15
-2166,48	-260,09
-2163,48	-112,64
-2160,47	-18,43
-2157,47	8,19
-2154,47	122,88
-2151,48	118,78
-2148,48	98,30
-2145,49	63,49
-2142,49	-131,07
-2139,50	-22,53
-2136,51	-51,20
-2133,52	22,53
-2130,53	583,67
-2127,54	589,81
-2124,55	362,49
-2121,57	686,07
-2118,58	784,37
-2115,60	655,35
-2112,62	802,80
-2109,64	854,00
-2106,66	757,75
-2103,68	471,03
-2100,70	557,05
-2097,73	505,85
-2094,75	661,49
-2091,78	507,90
-2088,81	557,05
-2085,83	473,08
-2082,86	-563,19
-2079,90	536,57
-2076,93	608,25
-2073,96	591,86
-2071,00	368,63
-2068,03	651,25
-2065,07	315,39
-2062,11	681,97
-2059,15	438,27
-2056,19	317,44
-2053,23	706,55
-2050,27	813,04
-2047,32	856,05
-2044,36	976,88
-2041,41	608,25
-2038,46	405,50
-2035,51	520,18
-2032,56	931,83
-2029,61	536,57
-2026,66	747,51
-2023,72	577,53
-2020,77	763,89
-2017,83	428,03
-2014,88	653,30
-2011,94	421,88
-2009,00	731,12
-2006,06	598,01
-2003,13	604,15
-2000,19	190,46
-1997,25	501,75
-1994,32	636,92
-1991,39	624,63
-1988,45	753,65
-1985,52	630,77
-1982,59	479,22
-1979,67	903,15
-1976,74	507,90
-1973,81	745,46
-1970,89	452,60
-1967,96	612,34
-1965,04	247,80
-1962,12	540,66
-1959,20	837,62
-1956,28	536,57
-1953,36	722,93
-1950,45	649,21
-1947,53	745,46
-1944,62	620,53
-1941,70	673,78
-1938,79	536,57
-1935,88	526,33
-1932,97	839,67
-1930,06	344,06
-1927,15	475,13
-1924,25	440,31
-1921,34	296,96
-1918,44	301,05
-1915,54	458,75
-1912,63	452,60
-1909,73	518,14
-1906,83	808,95
-1903,94	692,21
-1901,04	708,60
-1898,14	350,20
-1895,25	528,38
-1892,36	530,42
-1889,46	442,36
-1886,57	493,56
-1883,68	499,70
-1880,79	786,42
-1877,91	581,62
-1875,02	808,95
-1872,13	626,68
-1869,25	481,27
-1866,37	645,11
-1863,48	567,29
-1860,60	745,46
-1857,72	483,32
-1854,84	548,86
-1851,97	522,23
-1849,09	673,78
-1846,22	432,12
-1843,34	399,35
-1840,47	557,05
-1837,60	583,67
-1834,73	671,73
-1831,86	749,56
-1828,99	536,57
-1826,12	526,33
-1823,26	428,03
-1820,39	593,91
-1817,53	1019,89
-1814,67	604,15
-1811,80	548,86
-1808,94	477,18
-1806,08	559,10
-1803,23	634,87
-1800,37	325,63
-1797,51	894,96
-1794,66	585,72
-1791,81	307,20
-1788,95	661,49
-1786,10	663,54
-1783,25	378,87
-1780,40	419,83
-1777,56	188,41
-1774,71	378,87
-1771,86	419,83
-1769,02	595,96
-1766,18	299,00
-1763,33	237,56
-1760,49	552,95
-1757,65	550,90
-1754,81	442,36
-1751,98	409,59
-1749,14	423,93
-1746,30	585,72
-1743,47	446,46
-1740,64	464,89
-1737,81	620,53
-1734,97	319,48
-1732,14	530,42
-1729,32	604,15
-1726,49	720,89
-1723,66	174,08
-1720,84	620,53
-1718,01	516,09
-1715,19	634,87
-1712,37	471,03
-1709,55	374,78
-1706,73	505,85
-1703,91	362,49
-1701,09	309,24
-1698,27	225,28
-1695,46	698,36
-1692,65	274,43
-1689,83	278,52
-1687,02	360,44
-1684,21	376,83
-1681,40	405,50
-1678,59	120,83
-1675,78	399,35
-1672,98	100,35
-1670,17	763,89
-1667,37	362,49
-1664,56	444,41
-1661,76	651,25
-1658,96	589,82
-1656,16	331,77
-1653,36	645,11
-1650,57	456,70
-1647,77	374,78
-1644,97	129,02
-1642,18	669,69
-1639,39	495,61
-1636,60	679,93
-1633,80	233,47
-1631,01	301,05
-1628,23	849,91
-1625,44	499,70
-1622,65	966,64
-1619,87	767,99
-1617,08	610,29
-1614,30	204,80
-1611,52	186,37
-1608,74	413,69
-1605,96	333,82
-1603,18	509,94
-1600,40	385,02
-1597,62	569,34
-1594,85	292,86
-1592,07	477,18
-1589,30	446,46
-1586,53	804,85
-1583,76	438,27
-1580,99	583,67
-1578,22	276,48
-1575,45	360,44
-1572,68	542,71
-1569,92	405,50
-1567,15	546,81
-1564,39	479,22
-1561,63	579,58
-1558,86	466,94
-1556,10	417,79
-1553,34	684,02
-1550,59	610,29
-1547,83	573,43
-1545,07	462,84
-1542,32	135,17
-1539,56	585,72
-1536,81	524,28
-1534,06	378,87
-1531,31	638,97
-1528,56	202,75
-1525,81	790,52
-1523,06	696,31
-1520,32	1128,43
-1517,57	450,55
-1514,83	323,58
-1512,09	608,25
-1509,34	491,51
-1506,60	544,76
-1503,86	471,03
-1501,12	184,32
-1498,39	198,65
-1495,65	681,97
-1492,91	468,98
-1490,18	706,55
-1487,45	479,22
-1484,71	591,86
-1481,98	561,14
-1479,25	415,74
-1476,52	419,83
-1473,80	258,04
-1471,07	368,63
-1468,34	417,79
-1465,62	550,90
-1462,89	385,02
-1460,17	700,41
-1457,45	509,94
-1454,73	538,62
-1452,01	614,39
-1449,29	765,94
-1446,57	458,74
-1443,86	647,16
-1441,14	997,36
-1438,43	229,37
-1435,71	468,98
-1433,00	284,67
-1430,29	333,82
-1427,58	1794,02
-1424,87	243,71
-1422,16	548,86
-1419,46	346,11
-1416,75	274,43
-1414,05	405,50
-1411,34	243,71
-1408,64	319,48
-1405,94	299,00
-1403,24	370,68
-1400,54	376,83
-1397,84	-3540,94
-1395,14	647,16
-1392,45	661,49
-1389,75	421,88
-1387,06	372,73
-1384,36	505,85
-1381,67	454,65
-1378,98	448,51
-1376,29	630,77
-1373,60	460,79
-1370,91	526,33
-1368,23	409,59
-1365,54	571,38
-1362,86	501,75
-1360,17	602,10
-1357,49	632,82
-1354,81	550,90
-1352,13	284,67
-1349,45	671,73
-1346,77	450,55
-1344,09	278,52
-1341,42	526,33
-1338,74	-14,34
-1336,07	772,08
-1333,39	274,43
-1330,72	483,32
-1328,05	299,00
-1325,38	141,31
-1322,71	428,03
-1320,04	98,30
-1317,37	501,75
-1314,71	575,48
-1312,04	301,05
-1309,38	450,55
-1306,72	892,91
-1304,05	485,37
-1301,39	251,90
-1298,73	256,00
-1296,08	471,03
-1293,42	204,80
-1290,76	155,65
-1288,10	180,22
-1285,45	462,84
-1282,80	301,05
-1280,14	493,56
-1277,49	376,83
-1274,84	288,76
-1272,19	196,60
-1269,54	520,18
-1266,90	471,03
-1264,25	352,25
-1261,60	278,52
-1258,96	462,84
-1256,32	544,76
-1253,67	444,41
-1251,03	403,45
-1248,39	735,22
-1245,75	419,83
-1243,11	331,77
-1240,48	481,27
-1237,84	511,99
-1235,20	428,03
-1232,57	305,15
-1229,94	659,45
-1227,31	409,59
-1224,67	413,69
-1222,04	385,02
-1219,41	565,24
-1216,79	333,82
-1214,16	362,49
-1211,53	337,91
-1208,91	149,50
-1206,28	172,03
-1203,66	532,47
-1201,04	382,97
-1198,42	737,27
-1195,80	641,01
-1193,18	299,00
-1190,56	-976,88
-1187,94	665,59
-1185,33	215,04
-1182,71	583,67
-1180,10	522,23
-1177,49	245,76
-1174,87	190,46
-1172,26	249,85
-1169,65	307,20
-1167,04	395,26
-1164,44	612,34
-1161,83	315,39
-1159,22	395,26
-1156,62	317,44
-1154,01	325,63
-1151,41	499,70
-1148,81	346,11
-1146,21	319,48
-1143,61	636,92
-1141,01	356,35
-1138,41	274,43
-1135,81	454,65
-1133,22	448,51
-1130,62	1245,16
-1128,03	534,52
-1125,44	335,87
-1122,84	483,32
-1120,25	534,52
-1117,66	229,37
-1115,07	309,24
-1112,49	331,77
-1109,90	425,98
-1107,31	245,76
-1104,73	301,05
-1102,14	634,87
-1099,56	296,96
-1096,98	333,82
-1094,40	419,83
-1091,82	385,02
-1089,24	712,69
-1086,66	415,74
-1084,08	370,68
-1081,51	174,08
-1078,93	514,04
-1076,36	256,00
-1073,79	256,00
-1071,21	581,62
-1068,64	118,78
-1066,07	30,72
-1063,50	458,75
-1060,93	577,53
-1058,37	393,21
-1055,80	567,29
-1053,24	268,28
-1050,67	444,41
-1048,11	595,96
-1045,55	432,12
-1042,99	-36,86
-1040,42	430,07
-1037,87	511,99
-1035,31	438,27
-1032,75	428,03
-1030,19	542,71
-1027,64	497,66
-1025,08	346,11
-1022,53	180,22
-1019,98	159,74
-1017,43	157,69
-1014,88	182,27
-1012,33	98,30
-1009,78	346,11
-1007,23	559,10
-1004,68	352,25
-1002,14	301,05
-999,59	75,77
-997,05	454,65
-994,51	452,60
-991,96	131,07
-989,42	436,22
-986,88	235,52
-984,34	217,08
-981,81	253,95
-979,27	217,08
-976,73	122,88
-974,20	-34,82
-971,66	215,04
-969,13	63,49
-966,60	471,03
-964,07	350,20
-961,54	69,63
-959,01	405,50
-956,48	454,65
-953,95	524,28
-951,43	319,48
-948,90	356,35
-946,38	303,10
-943,85	249,85
-941,33	565,24
-938,81	266,24
-936,29	10,24
-933,77	548,86
-931,25	497,66
-928,73	456,70
-926,22	491,51
-923,70	278,52
-921,19	69,63
-918,67	143,36
-916,16	405,50
-913,65	-131,07
-911,14	311,29
-908,63	491,51
-906,12	258,04
-903,61	188,41
-901,10	364,54
-898,59	202,75
-896,09	129,02
-893,59	16,38
-891,08	485,37
-888,58	210,94
-886,08	552,95
-883,58	129,02
-881,08	292,86
-878,58	542,71
-876,08	563,19
-873,58	294,91
-871,09	446,46
-868,59	520,18
-866,10	352,25
-863,61	47,10
-861,12	270,33
-858,62	147,45
-856,13	266,24
-853,64	288,76
-851,16	481,27
-848,67	360,44
-846,18	389,11
-843,70	538,62
-841,21	217,08
-838,73	212,99
-836,25	391,16
-833,77	352,25
-831,28	204,80
-828,81	317,44
-826,33	290,81
-823,85	317,44
-821,37	548,86
-818,90	516,09
-816,42	296,96
-813,95	516,09
-811,47	247,80
-809,00	-1198,06
-806,53	380,92
-804,06	522,23
-801,59	2459,61
-799,12	215,04
-796,65	679,93
-794,19	208,89
-791,72	69,63
-789,26	536,57
-786,79	348,15
-784,33	321,53
-781,87	364,54
-779,41	137,21
-776,95	325,63
-774,49	393,21
-772,03	303,10
-769,57	419,83
-767,12	299,00
-764,66	479,22
-762,21	436,22
-759,75	366,59
-757,30	114,69
-754,85	342,01
-752,40	141,31
-749,95	104,45
-747,50	714,74
-745,05	468,98
-742,60	190,46
-740,16	262,14
-737,71	266,24
-735,27	718,84
-732,82	532,47
-730,38	286,72
-727,94	514,04
-725,50	333,82
-723,06	325,63
-720,62	225,28
-718,18	309,24
-715,74	296,96
-713,31	290,81
-710,87	237,56
-708,44	210,94
-706,01	542,71
-703,57	190,46
-701,14	292,86
-698,71	215,04
-696,28	557,05
-693,85	161,79
-691,42	301,05
-689,00	270,33
-686,57	511,99
-684,15	241,66
-681,72	141,31
-679,30	159,74
-676,88	112,64
-674,45	145,41
-672,03	-118,78
-669,61	356,35
-667,20	75,77
-664,78	294,91
-662,36	-18,43
-659,94	239,61
-657,53	231,42
-655,12	360,44
-652,70	360,44
-650,29	733,17
-647,88	700,41
-645,47	268,28
-643,06	227,32
-640,65	331,77
-638,24	323,58
-635,83	61,44
-633,43	403,45
-631,02	423,93
-628,62	577,53
-626,22	325,63
-623,81	-1976,29
-621,41	301,05
-619,01	180,22
-616,61	325,63
-614,21	548,86
-611,81	299,00
-609,42	239,61
-607,02	2052,06
-604,63	305,15
-602,23	489,46
-599,84	290,81
-597,45	464,89
-595,05	10,24
-592,66	307,20
-590,27	153,60
-587,88	616,44
-585,50	483,32
-583,11	446,46
-580,72	413,69
-578,34	573,43
-575,95	276,48
-573,57	432,12
-571,19	165,89
-568,80	387,07
-566,42	518,14
-564,04	430,07
-561,66	436,22
-559,29	557,05
-556,91	325,63
-554,53	253,95
-552,16	67,58
-549,78	354,30
-547,41	395,26
-545,03	561,14
-542,66	305,15
-540,29	253,95
-537,92	677,88
-535,55	546,81
-533,18	434,17
-530,81	286,72
-528,45	1923,04
-526,08	268,28
-523,72	327,68
-521,35	419,83
-518,99	577,53
-516,63	229,37
-514,27	544,76
-511,90	360,44
-509,54	565,24
-507,19	139,26
-504,83	417,79
-502,47	176,13
-500,11	477,18
-497,76	643,06
-495,40	290,81
-493,05	479,22
-490,70	436,22
-488,35	374,78
-486,00	624,63
-483,65	698,36
-481,30	833,52
-478,95	630,77
-476,60	698,36
-474,25	419,83
-471,91	315,39
-469,56	479,22
-467,22	638,97
-464,88	350,20
-462,53	450,55
-460,19	555,00
-457,85	718,84
-455,51	182,27
-453,17	-5412,78
-450,84	282,62
-448,50	485,37
-446,16	589,82
-443,83	655,35
-441,49	696,31
-439,16	770,04
-436,83	714,74
-434,50	974,83
-432,16	575,48
-429,83	645,11
-427,50	571,38
-425,18	403,45
-422,85	677,88
-420,52	598,01
-418,20	485,37
-415,87	618,49
-413,55	479,22
-411,22	634,87
-408,90	468,98
-406,58	430,07
-404,26	432,12
-401,94	442,36
-399,62	540,66
-397,30	495,61
-394,99	481,27
-392,67	581,62
-390,35	565,24
-388,04	583,67
-385,73	747,51
-383,41	468,98
-381,10	702,45
-378,79	546,81
-376,48	505,85
-374,17	555,00
-371,86	710,65
-369,55	565,24
-367,25	962,55
-364,94	518,14
-362,64	409,59
-360,33	514,04
-358,03	499,70
-355,73	571,38
-353,42	673,78
-351,12	661,49
-348,82	577,53
-346,52	514,04
-344,23	544,76
-341,93	739,32
-339,63	573,43
-337,34	763,89
-335,04	270,33
-332,75	503,80
-330,45	481,27
-328,16	571,38
-325,87	428,03
-323,58	374,78
-321,29	550,90
-319,00	532,47
-316,71	233,47
-314,42	186,37
-312,14	395,26
-309,85	161,79
-307,57	358,39
-305,28	129,02
-303,00	20,48
-300,72	315,39
-298,44	61,44
-296,16	-153,60
-293,88	32,77
-291,60	139,26
-289,32	520,18
-287,04	397,31
-284,77	411,64
-282,49	30,72
-280,22	-28,67
-277,94	456,70
-275,67	290,81
-273,40	186,37
-271,13	153,60
-268,85	258,04
-266,59	296,96
-264,32	208,89
-262,05	106,49
-259,78	102,40
-257,51	354,30
-255,25	307,20
-252,98	235,52
-250,72	389,11
-248,46	229,37
-246,20	67,58
-243,93	296,96
-241,67	-239,61
-239,41	180,22
-237,16	282,62
-234,90	186,37
-232,64	126,97
-230,38	-2,05
-228,13	139,26
-225,87	188,41
-223,62	10,24
-221,37	249,85
-219,11	225,28
-216,86	176,13
-214,61	311,29
-212,36	307,20
-210,11	405,50
-207,87	22,53
-205,62	284,67
-203,37	-69,63
-201,13	477,18
-198,88	63,49
-196,64	69,63
-194,39	-55,30
-192,15	112,64
-189,91	172,03
-187,67	542,71
-185,43	174,08
-183,19	243,71
-180,95	327,67
-178,72	212,99
-176,48	423,93
-174,24	73,73
-172,01	94,21
-169,77	-108,54
-167,54	305,15
-165,31	350,20
-163,08	90,11
-160,85	167,93
-158,62	112,64
-156,39	378,87
-154,16	153,60
-151,93	411,64
-149,70	350,20
-147,48	325,63
-145,25	231,42
-143,03	204,80
-140,81	366,59
-138,58	36,86
-136,36	151,55
-134,14	172,03
-131,92	249,85
-129,70	313,34
-127,48	53,25
-125,26	215,04
-123,05	104,45
-120,83	163,84
-118,62	491,51
-116,40	294,91
-114,19	120,83
-111,97	-110,59
-109,76	124,93
-107,55	-292,86
-105,34	329,72
-103,13	36,86
-100,92	315,39
-98,71	337,91
-96,51	438,27
-94,30	301,05
-92,09	49,15
-89,89	309,24
-87,69	421,88
-85,48	743,41
-83,28	92,16
-81,08	550,90
-78,88	456,70
-76,68	382,97
-74,48	311,29
-72,28	294,91
-70,08	483,32
-67,88	468,98
-65,69	606,20
-63,49	430,07
-61,30	231,42
-59,11	430,07
-56,91	196,60
-54,72	165,89
-52,53	440,31
-50,34	350,20
-48,15	391,16
-45,96	319,48
-43,77	520,18
-41,59	530,42
-39,40	149,50
-37,21	456,70
-35,03	266,24
-32,84	485,37
-30,66	483,32
-28,48	348,15
-26,30	708,60
-24,12	831,48
-21,94	1538,02
-19,76	2420,70
-17,58	4075,46
-15,40	7557,00
-13,22	14751,52
-11,05	21311,16
-8,87	27868,76
-6,70	34508,27
-4,52	40197,53
-2,35	38331,83
-0,18	40609,17
1,99	38499,76
4,16	37004,75
6,33	32083,48
8,50	26406,51
10,67	20836,03
12,84	17254,14
15,00	14481,19
17,17	12711,74
19,33	10389,35
21,50	8382,34
23,66	7475,09
25,83	4937,65
27,99	3041,23
30,15	2398,17
32,31	1515,50
34,47	968,69
36,63	681,97
38,79	638,97
40,94	325,63
43,10	368,63
45,25	284,67
47,41	485,37
49,56	638,97
51,72	147,45
53,87	296,96
56,02	423,93
58,17	280,57
60,32	-135,17
62,47	313,34
64,62	94,21
66,77	129,02
68,92	129,02
71,06	413,69
73,21	235,52
75,35	282,62
77,50	325,63
79,64	624,63
81,78	196,60
83,92	135,17
86,06	391,16
88,20	315,39
90,34	452,60
92,48	270,33
94,62	276,48
96,76	47,10
98,89	227,32
101,03	243,71
103,16	260,09
105,30	466,94
107,43	614,39
109,56	120,83
111,69	296,96
113,82	311,29
115,95	141,31
118,08	165,89
120,21	503,80
122,34	393,21
124,47	88,06
126,59	231,42
128,72	-51,20
130,84	591,86
132,97	266,24
135,09	335,87
137,21	337,91
139,33	-49,15
141,45	454,65
143,57	395,26
145,69	249,85
147,81	503,80
149,93	704,50
152,05	247,80
154,16	518,14
156,28	114,69
158,39	253,95
160,51	301,05
162,62	487,42
164,73	159,74
166,85	335,87
168,96	157,69
171,07	313,34
173,18	282,62
175,28	122,88
177,39	-75,77
179,50	268,28
181,61	612,34
183,71	360,44
185,82	286,72
187,92	172,03
190,02	305,15
192,13	235,52
194,23	313,34
196,33	413,69
198,43	436,22
200,53	239,61
202,63	401,40
204,72	311,29
206,82	272,38
208,92	47,10
211,01	231,42
213,11	337,91
215,20	368,63
217,30	215,04
219,39	264,19
221,48	468,98
223,57	-20,48
225,66	403,45
227,75	100,35
229,84	446,46
231,93	299,00
234,02	460,79
236,10	163,84
238,19	307,20
240,28	311,29
242,36	462,84
244,44	278,52
246,53	290,81
248,61	788,47
250,69	301,05
252,77	645,11
254,85	845,81
256,93	1064,94
259,01	1028,08
261,09	1193,97
263,16	1521,64
265,24	1703,91
267,32	2082,78
269,39	2183,13
271,46	2050,02
273,54	2422,75
275,61	2367,45
277,68	2629,59
279,75	2826,20
281,82	2785,24
283,89	2920,40
285,96	2985,94
288,03	3069,91
290,10	3141,58
292,16	3074,00
294,23	3131,34
296,29	3280,85
298,36	3266,51
300,42	2697,17
302,49	3264,46
304,55	3270,61
306,61	3125,20
308,67	1370,09
310,73	3315,66
312,79	3147,73
314,85	2865,11
316,90	2985,94
318,96	3260,37
321,02	3332,05
323,07	2967,51
325,13	2996,18
327,18	2969,55
329,24	3248,08
331,29	3188,69
333,34	3313,61
335,39	3409,87
337,44	3117,01
339,49	3067,86
341,54	3149,78
343,59	3000,27
345,64	3168,21
347,68	3092,43
349,73	2912,21
351,77	2957,27
353,82	3239,89
355,86	3176,40
357,90	3196,88
359,95	3217,36
361,99	3385,29
364,03	3446,73
366,07	3315,66
368,11	2877,40
370,15	3483,59
372,19	3145,68
374,22	3231,69
376,26	3264,46
378,29	3354,57
380,33	2854,87
382,36	3456,97
384,40	3334,09
386,43	11728,72
388,46	3170,26
390,49	3387,34
392,52	3172,30
394,55	3123,15
396,58	3303,37
398,61	3495,88
400,64	3514,31
402,67	3510,22
404,69	3446,73
406,72	3334,09
408,74	3618,76
410,77	3872,71
412,79	3418,06
414,81	3508,17
416,84	3901,38
418,86	4151,23
420,88	3665,86
422,90	3868,61
424,92	4073,41
426,94	4284,35
428,95	4202,43
430,97	4489,15
432,99	4384,70
435,00	4224,96
437,02	4782,01
439,03	4388,80
441,04	4421,56
443,06	4720,57
445,07	4081,60
447,08	3901,38
449,09	3928,00
451,10	4095,94
453,11	4075,46
455,12	4106,18
457,13	3893,19
459,13	3755,97
461,14	3973,06
463,14	3905,48
465,15	3725,26
467,15	3825,61
469,16	3639,24
471,16	3440,59
473,16	3553,23
475,16	3493,83
477,16	3706,82
479,16	3477,45
481,16	3635,14
483,16	3813,32
485,16	3612,62
487,15	3645,38
489,15	3661,77
491,15	3448,78
493,14	3755,97
495,14	3717,06
497,13	3436,49
499,12	3315,66
501,11	3497,93
503,11	3295,18
505,10	3694,54
507,09	3727,30
509,07	3246,03
511,06	3555,27
513,05	3172,30
515,04	3321,81
517,02	3692,49
519,01	3403,72
521,00	3252,17
522,98	3559,37
524,96	3661,77
526,95	3596,23
528,93	3629,00
530,91	3567,56
532,89	3510,22
534,87	3381,20
536,85	2138,08
538,83	3268,56
540,81	3788,74
542,78	3631,05
544,76	3219,41
546,74	3844,04
548,71	3555,27
550,69	3602,38
552,66	3676,10
554,63	3741,64
556,60	3534,79
558,58	3524,55
560,55	3256,27
562,52	3758,02
564,49	3424,20
566,46	3559,37
568,42	3645,38
570,39	3626,95
572,36	3737,54
574,32	3200,98
576,29	3811,27
578,25	3336,14
580,22	3450,83
582,18	3330,00
584,14	3618,76
586,11	3626,95
588,07	3532,75
590,03	3018,71
591,99	3354,57
593,95	3682,25
595,90	3626,95
597,86	3684,30
599,82	3479,50
601,78	3305,42
603,73	3688,39
605,69	3391,44
607,64	3678,15
609,59	3375,05
611,55	3411,92
613,50	3422,16
615,45	3178,45
617,40	3465,16
619,35	3590,09
621,30	3526,60
623,25	3723,21
625,20	3506,12
627,15	3844,04
629,09	3960,77
631,04	3416,01
632,98	3461,07
634,93	3342,28
636,87	3319,76
638,82	3303,37
640,76	3516,36
642,70	3319,76
644,64	3598,28
646,58	3170,26
648,52	3499,98
650,46	3598,28
652,40	3426,25
654,34	3399,63
656,27	3469,26
658,21	3450,83
660,15	3588,04
662,08	3583,95
664,02	3594,19
665,95	3444,68
667,88	3190,74
669,82	3407,82
671,75	3565,51
673,68	3524,55
675,61	3358,67
677,54	3516,36
679,47	3483,59
681,40	3420,11
683,32	3495,88
685,25	3278,80
687,18	3530,70
689,10	3475,40
691,03	3340,24
692,95	3446,73
694,87	3487,69
696,80	3168,21
698,72	3160,02
700,64	3278,80
702,56	3741,64
704,48	3524,55
706,40	3448,78
708,32	3540,94
710,24	3672,01
712,16	3346,38
714,07	4003,78
715,99	3629,00
717,90	3504,07
719,82	3741,64
721,73	3422,16
723,65	3454,92
725,56	3583,95
727,47	3491,79
729,38	3663,82
731,29	3377,10
733,20	3352,52
735,11	3364,81
737,02	3489,74
738,93	3682,25
740,84	3532,75
742,74	3504,07
744,65	3563,47
746,55	3473,35
748,46	3442,64
750,36	3676,10
752,27	3944,39
754,17	3725,26
756,07	3719,11
757,97	3569,61
759,87	3672,01
761,77	3567,56
763,67	3784,65
765,57	3416,01
767,47	3585,99
769,37	3407,82
771,26	3545,03
773,16	3553,23
775,06	3946,44
776,95	3594,19
778,84	3667,91
780,74	3475,40
782,63	3686,34
784,52	3452,88
786,41	3465,16
788,30	3655,62
790,19	3747,78
792,08	3682,25
793,97	3585,99
795,86	3555,27
797,75	3915,72
799,63	3745,73
801,52	3436,49
803,41	3346,38
805,29	3928,00
807,18	3493,83
809,06	3848,13
810,94	3770,31
812,82	3483,59
814,70	3788,74
816,59	3895,24
818,47	3768,26
820,35	3712,97
822,22	3571,66
824,10	4054,98
825,98	3354,57
827,86	3852,23
829,73	4069,31
831,61	3792,84
833,48	3657,67
835,36	3903,43
837,23	3905,48
839,10	3987,40
840,98	3618,76
842,85	4026,31
844,72	3786,69
846,59	3901,38
848,46	4042,69
850,33	4403,13
852,20	4167,62
854,06	4589,50
855,93	4366,27
857,80	4741,05
859,66	4753,34
861,53	5232,56
863,39	5367,73
865,26	6506,40
867,12	6576,03
868,98	8185,73
870,84	9506,67
872,71	10172,26
874,57	10815,32
876,43	12246,85
878,29	12644,16
880,14	13330,23
882,00	12777,28
883,86	12054,34
885,72	11726,67
887,57	10028,90
889,43	10059,62
891,28	8957,82
893,14	8249,22
894,99	7792,52
896,84	6698,91
898,69	6041,51
900,55	5697,45
902,40	5011,38
904,25	5081,01
906,10	4652,99
907,95	4681,66
909,79	4425,66
911,64	4093,89
913,49	4132,80
915,34	3999,68
917,18	3915,72
919,03	3796,93
920,87	3942,34
922,71	3864,52
924,56	3991,49
926,40	3489,74
928,24	3645,38
930,08	3635,14
931,92	3672,01
933,76	3747,78
935,60	3868,61
937,44	3928,00
939,28	3489,74
941,12	3680,20
942,95	3661,77
944,79	3499,98
946,62	3604,43
948,46	3387,34
950,29	3549,13
952,13	3319,76
953,96	3180,50
955,79	3389,39
957,62	3725,26
959,46	3184,59
961,29	3260,37
963,12	3368,91
964,94	3506,12
966,77	3502,03
968,60	3522,51
970,43	3422,16
972,25	3794,89
974,08	3280,85
975,91	3024,85
977,73	3149,78
979,55	3272,65
981,38	3633,10
983,20	3565,51
985,02	3553,23
986,84	3452,88
988,66	3579,85
990,49	3631,05
992,30	3364,81
994,12	3706,82
995,94	3483,59
997,76	3776,45
999,58	4184,00
1001,39	3665,86
1003,21	3680,20
1005,02	3813,32
1006,84	3522,51
1008,65	3635,14
1010,47	3825,61
1012,28	3885,00
1014,09	3833,80
1015,90	3942,34
1017,71	4181,95
1019,52	3999,68
1021,33	2758,61
1023,14	4106,18
1024,95	3917,76
1026,76	3991,49
1028,56	4372,41
1030,37	4448,19
1032,18	4671,42
1033,98	4974,52
1035,79	4911,03
1037,59	5195,70
1039,39	5361,58
1041,20	5369,77
1043,00	5605,29
1044,80	5691,31
1046,60	5767,08
1048,40	5664,68
1050,20	5658,54
1052,00	5820,33
1053,80	5287,86
1055,59	5414,83
1057,39	5631,91
1059,19	5476,27
1060,98	5009,33
1062,78	4956,08
1064,57	5162,93
1066,37	5312,43
1068,16	5449,64
1069,95	5404,59
1071,75	5853,09
1073,54	5834,66
1075,33	5898,15
1077,12	6301,60
1078,91	6346,66
1080,70	5961,64
1082,48	6774,68
1084,27	6676,38
1086,06	6938,52
1087,85	6653,85
1089,63	6926,23
1091,42	6987,67
1093,20	6594,46
1094,99	6094,75
1096,77	6313,89
1098,55	6043,56
1100,33	5492,65
1102,12	5324,72
1103,90	5222,32
1105,68	4863,93
1107,46	4622,27
1109,24	4982,71
1111,01	4616,12
1112,79	4593,59
1114,57	4429,76
1116,35	4243,39
1118,12	4378,56
1119,90	4116,42
1121,67	3749,83
1123,45	4046,79
1125,22	4247,49
1126,99	4063,17
1128,77	4255,68
1130,54	3885,00
1132,31	4233,15
1134,08	4089,79
1135,85	4319,17
1137,62	4059,07
1139,39	3819,46
1141,15	3862,47
1142,92	3350,48
1144,69	3811,27
1146,46	3559,37
1148,22	3747,78
1149,99	3885,00
1151,75	3540,94
1153,51	3811,27
1155,28	3325,90
1157,04	3723,21
1158,80	3829,70
1160,56	3499,98
1162,32	3864,52
1164,08	3360,72
1165,84	3479,50
1167,60	3616,71
1169,36	3913,67
1171,12	3794,89
1172,88	3416,01
1174,63	3194,83
1176,39	3891,14
1178,14	3411,92
1179,90	3622,86
1181,65	3522,51
1183,41	3465,16
1185,16	3522,51
1186,91	3704,78
1188,66	3448,78
1190,41	3362,76
1192,16	3321,81
1193,91	3499,98
1195,66	3112,91
1197,41	3307,47
1199,16	3459,02
1200,91	3596,23
1202,66	3330,00
1204,40	3530,70
1206,15	3549,13
1207,89	3145,68
1209,64	3305,42
1211,38	3483,59
1213,12	3471,31
1214,87	3192,78
1216,61	3231,69
1218,35	3481,55
1220,09	3465,16
1221,83	3606,47
1223,57	3346,38
1225,31	3194,83
1227,05	3692,49
1228,79	3395,53
1230,52	3700,68
1232,26	3436,49
1234,00	3540,94
1235,73	3354,57
1237,47	3362,76
1239,20	3440,59
1240,94	3489,74
1242,67	3442,64
1244,40	3487,69
1246,13	3581,90
1247,86	3493,83
1249,60	3743,69
1251,33	3665,86
1253,06	3450,83
1254,78	3837,89
1256,51	3903,43
1258,24	3710,92
1259,97	3672,01
1261,69	3882,95
1263,42	3827,65
1265,15	3868,61
1266,87	4292,54
1268,59	4134,85
1270,32	4253,63
1272,04	4343,74
1273,76	4548,54
1275,49	4702,14
1277,21	4691,90
1278,93	4648,89
1280,65	4638,65
1282,37	4538,30
1284,09	4511,68
1285,81	4515,77
1287,52	4360,13
1289,24	4349,89
1290,96	4224,96
1292,67	4003,78
1294,39	4102,08
1296,10	3846,09
1297,82	4069,31
1299,53	3653,58
1301,24	3829,70
1302,96	3919,81
1304,67	3868,61
1306,38	3698,63
1308,09	3772,36
1309,80	3223,50
1311,51	3626,95
1313,22	3557,32
1314,93	3207,12
1316,64	3598,28
1318,34	3557,32
1320,05	3393,48
1321,75	3086,29
1323,46	3542,99
1325,17	3692,49
1326,87	3413,96
1328,57	3186,64
1330,28	3272,65
1331,98	3430,35
1333,68	3489,74
1335,38	3545,03
1337,08	3370,96
1338,78	3647,43
1340,48	3540,94
1342,18	3526,60
1343,88	3481,55
1345,58	3373,00
1347,28	3532,75
1348,97	3299,28
1350,67	3325,90
1352,36	3467,21
1354,06	3686,34
1355,75	3377,10
1357,45	3508,17
1359,14	3280,85
1360,83	3393,48
1362,53	3669,96
1364,22	3590,09
1365,91	3530,70
1367,60	3553,23
1369,29	3657,67
1370,98	3481,55
1372,67	3567,56
1374,35	3264,46
1376,04	3782,60
1377,73	3778,50
1379,41	3985,35
1381,10	3573,71
1382,79	4241,34
1384,47	3764,17
1386,15	3807,17
1387,84	3610,57
1389,52	3585,99
1391,20	3815,37
1392,88	3424,20
1394,57	3952,58
1396,25	3835,85
1397,93	3866,57
1399,61	4005,83
1401,28	3968,96
1402,96	3737,54
1404,64	4231,10
1406,32	3934,15
1407,99	3860,42
1409,67	4157,38
1411,35	3991,49
1413,02	3999,68
1414,70	4114,37
1416,37	4304,83
1418,04	3946,44
1419,71	4122,56
1421,39	4179,90
1423,06	4044,74
1424,73	4044,74
1426,40	4138,94
1428,07	4237,25
1429,74	4243,39
1431,41	4413,37
1433,08	4431,80
1434,74	4343,74
1436,41	4763,58
1438,08	4859,83
1439,74	4845,49
1441,41	5158,83
1443,07	5296,05
1444,74	5787,56
1446,40	5756,84
1448,06	6209,44
1449,72	6537,12
1451,39	6641,56
1453,05	6942,61
1454,71	6997,91
1456,37	6905,75
1458,03	6471,58
1459,69	6772,63
1461,35	6911,89
1463,00	6334,37
1464,66	5947,30
1466,32	5463,98
1467,97	5400,49
1469,63	5099,44
1471,28	4997,04
1472,94	4583,35
1474,59	4999,09
1476,25	4689,85
1477,90	4521,92
1479,55	4689,85
1481,20	4538,30
1482,85	4499,39
1484,50	1204,21
1486,15	4347,84
1487,80	4038,59
1489,45	3962,82
1491,10	4110,27
1492,75	4212,67
1494,40	4130,75
1496,04	3864,52
1497,69	3973,06
1499,33	3680,20
1500,98	3649,48
1502,62	3694,54
1504,27	3698,63
1505,91	3422,16
1507,55	3659,72
1509,19	3291,09
1510,84	3336,14
1512,48	3346,38
1514,12	3450,83
1515,76	3286,99
1517,40	3585,99
1519,04	3506,12
1520,67	3637,19
1522,31	3524,55
1523,95	2861,01
1525,59	3442,64
1527,22	3334,09
1528,86	3196,88
1530,49	3311,57
1532,13	3117,01
1533,76	2932,69
1535,39	3530,70
1537,03	-2838,48
1538,66	3307,47
1540,29	2901,97
1541,92	3192,78
1543,55	3227,60
1545,18	3454,92
1546,81	3295,18
1548,44	3260,37
1550,07	3379,15
1551,70	3207,12
1553,32	3461,07
1554,95	3243,98
1556,58	2777,05
1558,20	3479,50
1559,83	3059,67
1561,45	2904,02
1563,07	3141,58
1564,70	2820,05
1566,32	2738,13
1567,94	3018,71
1569,56	2910,16
1571,19	3364,81
1572,81	3108,82
1574,43	3053,52
1576,05	3471,31
1577,66	3209,17
1579,28	3057,62
1580,90	2877,40
1582,52	962,55
1584,14	2961,36
1585,75	3383,24
1587,37	2840,53
1588,98	3047,38
1590,60	3336,14
1592,21	3096,53
1593,82	2932,69
1595,44	2885,59
1597,05	3041,23
1598,66	3039,19
1600,27	2664,41
1601,88	2805,72
1603,49	10407,78
1605,10	3110,86
1606,71	3276,75
1608,32	2648,02
1609,93	3045,33
1611,54	3096,53
1613,14	2873,30
1614,75	3215,31
1616,36	3018,71
1617,96	3024,85
1619,57	3323,85
1621,17	2752,47
1622,77	2938,84
1624,38	3153,87
1625,98	3092,43
1627,58	2865,11
1629,18	3225,55
1630,78	2990,03
1632,38	2858,96
1633,98	2967,51
1635,58	3082,19
1637,18	3426,25
1638,78	3282,89
1640,38	3063,76
1641,98	2934,74
1643,57	3207,12
1645,17	3184,59
1646,76	3102,67
1648,36	2775,00
1649,95	3248,08
1651,55	3037,14
1653,14	2967,51
1654,73	3295,18
1656,33	3100,62
1657,92	3035,09
1659,51	2912,21
1661,10	2899,92
1662,69	2975,70
1664,28	3067,86
1665,87	2750,42
1667,46	2791,38
1669,05	2969,55
1670,63	2834,39
1672,22	2588,63
1673,81	2791,38
1675,39	2807,77
1676,98	3100,62
1678,56	2389,98
1680,15	2994,13
1681,73	2848,72
1683,31	2854,87
1684,90	2713,56
1686,48	2611,16
1688,06	2766,81
1689,64	2635,74
1691,22	2668,50
1692,80	2920,40
1694,38	2889,68
1695,96	2869,20
1697,54	3155,92
1699,12	2840,53
1700,69	2871,25
1702,27	2734,04
1703,85	2611,16
1705,42	2484,19
1707,00	2570,20
1708,57	2652,12
1710,15	2557,91
1711,72	2416,60
1713,29	2576,34
1714,87	2594,78
1716,44	2484,19
1718,01	2572,25
1719,58	2349,02
1721,15	2508,76
1722,72	2598,87
1724,29	2611,16
1725,86	2500,57
1727,43	2645,98
1729,00	2506,71
1730,56	2355,16
1732,13	2340,83
1733,70	2527,19
1735,26	2574,30
1736,83	2498,52
1738,39	2582,49
1739,96	2717,65
1741,52	2500,57
1743,08	2424,80
1744,65	2168,80
1746,21	2488,28
1747,77	2715,61
1749,33	2248,67
1750,89	2269,15
1752,45	2492,38
1754,01	2396,12
1755,57	2338,78
1757,13	2414,56
1758,69	2402,27
1760,24	2410,46
1761,80	2119,65
1763,36	2181,09
1764,91	2449,37
1766,47	2113,50
1768,02	2519,00
1769,58	2308,06
1771,13	2277,34
1772,68	2312,16
1774,24	2639,83
1775,79	2080,74
1777,34	2148,32
1778,89	2459,61
1780,44	2252,77
1781,99	2273,25
1783,54	2502,62
1785,09	2064,35
1786,64	2088,93
1788,19	2207,71
1789,73	1839,08
1791,28	2330,59
1792,83	2226,14
1794,37	2007,01
1795,92	2631,64
1797,46	2220,00
1799,01	2211,81
1800,55	2203,61
1802,09	2406,36
1803,64	2318,30
1805,18	2451,42
1806,72	2164,70
1808,26	2062,30
1809,80	2144,22
1811,34	2136,03
1812,88	2084,83
1814,42	2437,08
1815,96	2371,55
1817,50	2475,99
1819,04	2265,05
1820,57	2160,61
1822,11	2293,73
1823,65	2428,89
1825,18	2379,74
1826,72	2203,61
1828,25	2326,49
1829,78	2435,03
1831,32	2271,20
1832,85	2254,81
1834,38	2555,86
1835,92	2326,49
1837,45	2095,07
1838,98	1939,43
1840,51	2271,20
1842,04	2070,50
1843,57	2166,75
1845,10	2330,59
1846,62	2283,49
1848,15	2035,68
1849,68	1927,14
1851,21	2445,27
1852,73	1951,71
1854,26	2215,90
1855,78	2072,54
1857,31	2230,24
1858,83	2002,91
1860,36	2336,73
1861,88	1984,48
1863,40	2318,30
1864,92	2117,60
1866,45	2412,51
1867,97	1900,51
1869,49	2097,12
1871,01	2050,02
1872,53	2174,94
1874,05	2271,20
1875,57	2189,28
1877,08	1941,47
1878,60	2019,30
1880,12	2375,64
1881,64	1910,75
1883,15	2084,83
1884,67	2047,97
1886,18	2158,56
1887,70	1943,52
1889,21	1830,88
1890,72	2115,55
1892,24	2115,55
1893,75	1890,28
1895,26	2230,24
1896,77	1828,84
1898,28	2035,68
1899,79	2052,06
1901,30	2054,11
1902,81	2007,01
1904,32	1927,14
1905,83	2111,46
1907,34	2129,89
1908,85	2109,41
1910,35	2041,82
1911,86	2019,30
1913,37	2314,20
1914,87	1943,52
1916,38	1808,36
1917,88	2254,81
1919,39	2258,91
1920,89	2250,72
1922,39	1796,07
1923,89	1904,61
1925,40	2142,18
1926,90	1994,72
1928,40	2043,87
1929,90	2062,30
1931,40	2103,26
1932,90	2076,64
1934,40	2041,82
1935,90	1974,24
1937,39	1912,80
1938,89	2179,04
1940,39	1961,95
1941,89	1982,43
1943,38	2000,87
1944,88	1656,81
1946,37	1857,51
1947,87	2162,65
1949,36	1986,53
1950,85	1916,90
1952,35	1982,43
1953,84	1656,81
1955,33	1978,34
1956,82	2070,50
1958,31	1892,32
1959,80	2093,02
1961,29	1929,19
1962,78	1857,51
1964,27	1959,91
1965,76	1832,93
1967,25	1728,49
1968,74	2011,11
1970,22	1873,89
1971,71	1888,23
1973,20	1867,75
1974,68	1828,84
1976,17	1720,29
1977,65	1861,60
1979,14	1613,80
1980,62	1970,15
1982,10	2093,02
1983,58	2140,13
1985,07	1763,30
1986,55	1837,03
1988,03	3047,38
1989,51	1783,78
1990,99	1847,27
1992,47	1724,39
1993,95	2527,19
1995,43	1863,65
1996,91	2060,26
1998,38	2191,33
1999,86	1992,67
2001,34	1581,03
2002,81	1902,56
2004,29	1808,36
2005,76	2052,06
2007,24	1904,61
2008,71	1658,85
2010,19	2000,87
2011,66	1849,32
2013,13	1892,32
2014,60	2037,73
2016,08	1716,20
2017,55	2078,69
2019,02	1865,70
2020,49	1826,79
2021,96	1738,73
2023,43	2000,87
2024,90	1834,98
2026,36	1847,27
2027,83	1740,77
2029,30	1920,99
2030,77	1746,92
2032,23	1578,98
2033,70	2007,01
2035,16	1824,74
2036,63	1916,90
2038,09	1753,06
2039,56	2072,54
2041,02	2133,98
2042,48	2013,15
2043,95	1814,50
2045,41	2011,11
2046,87	1753,06
2048,33	1908,71
2049,79	1824,74
2051,25	1959,91
2052,71	1818,60
2054,17	1824,74
2055,63	1564,65
2057,09	1894,37
2058,54	1880,04
2060,00	1609,70
2061,46	1882,08
2062,91	1884,13
2064,37	1697,77
2065,82	1662,95
2067,28	1898,47
2068,73	1671,14
2070,19	1734,63
2071,64	1710,05
2073,09	1959,91
2074,54	1796,07
2076,00	1769,44
2077,45	1845,22
2078,90	1927,14
2080,35	1910,75
2081,80	1624,04
2083,25	1703,91
2084,70	1908,71
2086,14	1857,51
2087,59	1712,10
2089,04	1660,90
2090,49	1964,00
2091,93	1599,46
2093,38	1859,56
2094,83	1855,46
2096,27	1943,52
2097,71	1906,66
2099,16	1558,50
2100,60	1832,93
2102,05	1753,06
2103,49	1781,73
2104,93	1662,95
2106,37	1597,42
2107,81	1722,34
2109,25	1777,64
2110,69	1847,27
2112,13	1665,00
2113,57	1650,66
2115,01	1800,16
2116,45	1769,44
2117,89	1974,24
2119,33	1941,47
2120,76	1509,35
2122,20	1724,39
2123,63	1929,19
2125,07	1617,90
2126,51	1726,44
2127,94	1787,88
2129,37	1548,26
2130,81	1550,31
2132,24	1703,91
2133,67	1454,06
2135,11	1578,98
2136,54	1595,37
2137,97	1556,46
2139,40	1744,87
2140,83	1763,30
2142,26	1720,29
2143,69	1646,57
2145,12	1781,73
2146,55	1744,87
2147,97	1529,83
2149,40	1564,65
2150,83	1824,74
2152,25	1699,81
2153,68	1654,76
2155,11	1699,81
2156,53	1714,15
2157,96	1607,66
2159,38	2054,11
2160,80	1630,18
2162,23	1779,68
2163,65	1325,04
2165,07	1585,13
2166,49	1904,61
2167,91	1529,83
2169,33	1519,59
2170,75	1533,93
2172,17	1839,08
2173,59	1898,47
2175,01	1517,54
2176,43	1542,12
2177,85	1196,01
2179,27	1570,79
2180,68	1617,90
2182,10	1605,61
2183,52	1583,08
2184,93	1439,72
2186,35	1701,86
2187,76	1656,81
2189,18	1619,94
2190,59	1140,72
2192,00	1521,64
2193,42	1423,34
2194,83	1372,14
2196,24	1593,32
2197,65	1413,10
2199,06	3309,52
2200,47	1753,06
2201,88	1654,76
2203,29	1355,76
2204,70	1480,68
2206,11	1445,87
2207,52	1470,44
2208,93	1540,07
2210,33	1652,71
2211,74	1466,35
2213,15	1497,07
2214,55	1492,97
2215,96	1716,20
2217,36	1327,08
2218,77	1370,09
2220,17	1298,41
2221,57	1609,70
2222,98	1386,47
2224,38	1421,29
2225,78	1533,93
2227,18	1427,43
2228,58	1724,39
2229,99	1413,10
2231,39	1591,27
2232,79	1419,24
2234,18	1366,00
2235,58	1495,02
2236,98	1570,79
2238,38	1435,63
2239,78	1101,81
2241,17	1650,66
2242,57	1851,36
2243,97	1589,22
2245,36	1415,15
2246,76	1441,77
2248,15	1486,83
2249,55	1236,97
2250,94	1392,62
2252,33	1482,73
2253,73	1615,85
2255,12	1611,75
2256,51	1363,95
2257,90	1406,95
2259,29	1296,36
2260,68	1394,67
2262,07	1492,97
2263,46	1435,63
2264,85	1335,28
2266,24	1355,76
2267,63	1370,09
2269,02	1800,16
2270,40	1562,60
2271,79	1495,02
2273,18	1673,19
2274,56	1531,88
2275,95	1308,65
2277,33	1251,31
2278,72	1478,63
2280,10	1288,17
2281,49	1560,55
2282,87	1626,09
2284,25	1548,26
2285,63	1548,26
2287,02	1464,30
2288,40	1472,49
2289,78	1212,40
2291,16	1480,68
2292,54	1484,78
2293,92	1501,16
2295,30	1820,64
2296,68	1419,24
2298,05	1499,11
2299,43	1390,57
2300,81	1325,04
2302,19	1372,14
2303,56	1341,42
2304,94	1355,76
2306,31	1474,54
2307,69	1193,97
2309,06	1363,95
2310,44	1538,02
2311,81	1458,15
2313,19	1415,15
2314,56	1226,73
2315,93	1384,43
2317,30	1331,18
2318,67	1292,27
2320,04	1392,62
2321,41	1603,56
2322,78	1460,20
2324,15	1136,62
2325,52	1339,37
2326,89	1306,60
2328,26	1075,18
2329,63	1363,95
2331,00	1302,51
2332,36	1017,84
2333,73	1441,77
2335,09	1396,71
2336,46	1353,71
2337,83	1187,82
2339,19	1052,66
2340,55	1222,64
2341,92	1583,08
2343,28	1288,17
2344,64	1515,50
2346,01	1341,42
2347,37	1230,83
2348,73	1366,00
2350,09	1255,40
2351,45	1443,82
2352,81	1142,77
2354,17	-3370,96
2355,53	1316,84
2356,89	1241,07
2358,25	1398,76
2359,61	1060,85
2360,96	1044,46
2362,32	1220,59
2363,68	1320,94
2365,03	1155,05
2366,39	1611,75
2367,74	1273,84
2369,10	1544,17
2370,45	1261,55
2371,81	1396,71
2373,16	1136,62
2374,51	1179,63
2375,86	1183,73
2377,22	1476,59
2378,57	919,54
2379,92	1251,31
2381,27	1279,98
2382,62	1292,27
2383,97	1173,49
2385,32	1466,35
2386,67	1128,43
2388,02	1460,20
2389,37	1282,03
2390,71	1325,04
2392,06	1103,86
2393,41	1425,39
2394,75	1329,13
2396,10	1538,02
2397,44	1224,69
2398,79	1187,82
2400,13	1378,28
2401,48	1302,51
2402,82	1304,56
2404,17	1267,69
2405,51	1439,72
2406,85	1312,75
2408,19	1257,45
2409,53	1347,56
2410,87	1267,69
2412,22	960,50
2413,56	1038,32
2414,89	1562,60
2416,23	1578,98
2417,57	1220,59
2418,91	1161,20
2420,25	1183,73
2421,59	1396,71
2422,92	1224,69
2424,26	1312,75
2425,60	1064,94
2426,93	1308,65
2428,27	1380,33
2429,60	1351,66
2430,94	1345,52
2432,27	1114,09
2433,60	1214,45
2434,94	1468,39
2436,27	1380,33
2437,60	1329,13
2438,93	1085,42
2440,27	1099,76
2441,60	1333,23
2442,93	1155,05
2444,26	1273,84
2445,59	1122,29
2446,92	1142,77
2448,24	1093,62
2449,57	1132,53
2450,90	1216,49
2452,23	997,36
2453,55	1239,02
2454,88	1019,89
2456,21	1202,16
2457,53	1431,53
2458,86	1300,46
2460,18	1009,65
2461,51	1083,38
2462,83	1148,91
2464,15	1017,84
2465,48	1169,39
2466,80	1187,82
2468,12	1042,42
2469,44	1355,76
2470,76	1226,73
2472,09	1015,79
2473,41	1134,57
2474,73	1329,13
2476,05	1079,28
2477,36	1630,18
2478,68	903,15
2480,00	1193,97
2481,32	1099,76
2482,64	1191,92
2483,95	1165,29
2485,27	1105,90
2486,59	1122,29
2487,90	1023,98
2489,22	1216,49
2490,53	1138,67
2491,85	1296,36
2493,16	1214,45
2494,47	1112,05
2495,79	1107,95
2497,10	1157,10
2498,41	1122,29
2499,72	1081,33
2501,03	1206,25
2502,35	1294,32
2503,66	942,07
2504,97	919,54
2506,28	1073,14
2507,59	1212,40
2508,89	765,94
2510,20	1120,24
2511,51	856,05
2512,82	1032,18
2514,12	382,97
2515,43	1345,52
2516,74	1087,47
2518,04	1253,36
2519,35	1009,65
2520,65	1245,17
2521,96	1257,45
2523,26	1062,90
2524,57	1023,98
2525,87	1138,67
2527,17	1306,60
2528,47	1165,29
2529,78	1048,56
2531,08	1241,07
2532,38	1228,78
2533,68	1224,69
2534,98	1056,75
2536,28	1214,45
2537,58	1105,90
2538,88	1286,12
2540,18	1220,59
2541,47	1339,37
2542,77	1640,42
2544,07	1083,38
2545,37	811,00
2546,66	1363,95
2547,96	1144,81
2549,25	-1497,07
2550,55	1304,56
2551,84	1263,60
2553,14	952,31
2554,43	1351,66
2555,72	989,17
2557,02	1337,32
2558,31	905,20
2559,60	1013,74
2560,89	1089,52
2562,18	1234,93
2563,48	1310,70
2564,77	1228,78
2566,06	950,26
2567,35	1206,25
2568,63	1257,45
2569,92	1032,18
2571,21	1464,30
2572,50	1042,42
2573,79	1185,77
2575,07	1157,10
2576,36	1265,64
2577,65	1116,14
2578,93	1009,65
2580,22	1105,90
2581,50	1218,54
2582,79	2992,08
2584,07	1222,64
2585,36	1193,97
2586,64	1087,47
2587,92	1456,11
2589,20	1241,07
2590,49	1128,43
2591,77	1118,19
2593,05	880,63
2594,33	937,97
2595,61	1204,21
2596,89	1148,91
2598,17	1069,04
2599,45	1011,70
2600,73	1095,66
2602,00	1230,83
2603,28	1175,53
2604,56	1279,98
2605,84	1161,20
2607,11	1492,97
2608,39	1038,32
2609,67	1396,71
2610,94	1210,35
2612,22	1185,77
2613,49	792,56
2614,76	950,26
2616,04	1099,76
2617,31	1085,42
2618,58	1196,01
2619,86	866,29
2621,13	1392,62
2622,40	839,67
2623,67	1097,71
2624,94	741,36
2626,21	927,73
2627,48	1116,14
2628,75	1060,85
2630,02	1271,79
2631,29	1079,28
2632,56	1275,88
2633,82	821,24
2635,09	995,31
2636,36	1110,00
2637,63	1044,46
2638,89	940,02
2640,16	1157,10
2641,42	1165,29
2642,69	1232,88
2643,95	980,98
2645,22	890,87
2646,48	1064,94
2647,74	956,40
2649,01	1118,19
2650,27	1058,80
2651,53	911,35
2652,79	841,72
2654,05	1150,96
2655,31	1048,56
2656,57	894,96
2657,83	1030,13
2659,09	1120,24
2660,35	1048,56
2661,61	1249,26
2662,87	3104,72
2664,13	1124,33
2665,38	1132,53
2666,64	1034,22
2667,90	1097,71
2669,15	1372,14
2670,41	784,37
2671,67	937,97
2672,92	1429,48
2674,17	1214,45
2675,43	1253,36
2676,68	1322,99
2677,94	1193,97
2679,19	1187,82
2680,44	1120,24
2681,69	1144,81
2682,95	1282,03
2684,20	1423,34
2685,45	1355,76
2686,70	1480,68
2687,95	1273,84
2689,20	1388,52
2690,45	1310,70
2691,70	1239,02
2692,94	1220,59
2694,19	1359,85
2695,44	1683,43
2696,69	1066,99
2697,93	1339,37
2699,18	1714,15
2700,43	1329,13
2701,67	1681,38
2702,92	1603,56
2704,16	1568,74
2705,41	2101,22
2706,65	1601,51
2707,89	1832,93
2709,14	1816,55
2710,38	1703,91
2711,62	2158,56
2712,86	2015,20
2714,11	1984,48
2715,35	1961,95
2716,59	1937,38
2717,83	1818,60
2719,07	2047,97
2720,31	2353,12
2721,55	2412,51
2722,78	2179,04
2724,02	2248,67
2725,26	2555,86
2726,50	2482,14
2727,73	2750,42
2728,97	2471,90
2730,21	2142,18
2731,44	2375,64
2732,68	2199,52
2733,91	2195,42
2735,15	2338,78
2736,38	2207,71
2737,62	2357,21
2738,85	2142,18
2740,08	1849,32
2741,32	2541,53
2742,55	2115,55
2743,78	2115,55
2745,01	2267,10
2746,24	2074,59
2747,47	1980,39
2748,70	1011,70
2749,93	2291,68
2751,16	2244,57
2752,39	1712,10
2753,62	2383,84
2754,85	2381,79
2756,08	2314,20
2757,30	2113,50
2758,53	1824,74
2759,76	2238,43
2760,98	2039,78
2762,21	2111,46
2763,43	2207,71
2764,66	1851,36
2765,88	2093,02
2767,11	2168,80
2768,33	1863,65
2769,55	1941,47
2770,78	2039,78
2772,00	1665,00
2773,22	1753,06
2774,44	1810,40
2775,67	1898,47
2776,89	1660,90
2778,11	1724,39
2779,33	2019,30
2780,55	1972,19
2781,77	1957,86
2782,99	1867,75
2784,20	1869,80
2785,42	2021,35
2786,64	2017,25
2787,86	1951,71
2789,07	2019,30
2790,29	1804,26
2791,51	1804,26
2792,72	1789,92
2793,94	1658,85
2795,15	2015,20
2796,37	1603,56
2797,58	2031,59
2798,80	1802,21
2800,01	1998,82
2801,22	2222,05
2802,44	1853,41
2803,65	1558,50
2804,86	2027,49
2806,07	2373,60
2807,28	1996,77
2808,49	2318,30
2809,70	2111,46
2810,91	2199,52
2812,12	2322,40
2813,33	1925,09
2814,54	2611,16
2815,75	2365,40
2816,96	2201,57
2818,16	2179,04
2819,37	2439,13
2820,58	2686,93
2821,78	2580,44
2822,99	2660,31
2824,20	2691,03
2825,40	2607,06
2826,61	2893,78
2827,81	2670,55
2829,01	3014,61
2830,22	3057,62
2831,42	3098,58
2832,62	3325,90
2833,83	3182,54
2835,03	3469,26
2836,23	3678,15
2837,43	3680,20
2838,63	3334,09
2839,83	3598,28
2841,03	3700,68
2842,23	3815,37
2843,43	3993,54
2844,63	3895,24
2845,83	4079,55
2847,03	4075,46
2848,22	4274,11
2849,42	4554,68
2850,62	3899,33
2851,81	4478,91
2853,01	4835,25
2854,21	4892,60
2855,40	5074,87
2856,60	4446,14
2857,79	5406,64
2858,99	5265,33
2860,18	5527,47
2861,37	5578,67
2862,57	6260,64
2863,76	6100,90
2864,95	6582,17
2866,14	6762,39
2867,33	7255,95
2868,52	7878,54
2869,72	8906,62
2870,91	9322,35
2872,10	10166,12
2873,28	10532,70
2874,47	10452,83
2875,66	11300,69
2876,85	13201,21
2878,04	13430,58
2879,23	13655,86
2880,41	14374,69
2881,60	14016,30
2882,79	14190,38
2883,97	15167,26
2885,16	15183,64
2886,34	14956,32
2887,53	14722,85
2888,71	14962,46
2889,90	14569,25
2891,08	14405,41
2892,26	14208,81
2893,45	13864,75
2894,63	14004,01
2895,81	13838,12
2896,99	13489,97
2898,17	13444,91
2899,36	13489,97
2900,54	13168,44
2901,72	11448,15
2902,90	12244,81
2904,08	12218,18
2905,26	11984,71
2906,43	12177,22
2907,61	12003,14
2908,79	12158,79
2909,97	11605,84
2911,14	11534,16
2912,32	11521,87
2913,50	11626,32
2914,67	11052,89
2915,85	12015,43
2917,02	12060,49
2918,20	12420,93
2919,37	13209,40
2920,55	14087,98
2921,72	13020,99
2922,90	15775,50
2924,07	16074,51
2925,24	18058,99
2926,41	19963,60
2927,58	20348,62
2928,76	21976,75
2929,93	22478,51
2931,10	23963,28
2932,27	24614,54
2933,44	25208,45
2934,61	25458,30
2935,78	24082,06
2936,95	24493,71
2938,11	24264,33
2939,28	24063,63
2940,45	22296,24
2941,62	21587,64
2942,78	19549,91
2943,95	19230,43
2945,12	18323,18
2946,28	18065,13
2947,45	16641,79
2948,61	15339,29
2949,78	14999,32
2950,94	14061,35
2952,10	13078,33
2953,27	12429,12
2954,43	12031,82
2955,59	11073,37
2956,76	10778,46
2957,92	10250,08
2959,08	9963,37
2960,24	9854,83
2961,40	9647,98
2962,56	9406,32
2963,72	9736,04
2964,88	10260,32
2966,04	9609,07
2967,20	9643,88
2968,36	10088,29
2969,52	10219,36
2970,67	10125,16
2971,83	10516,32
2972,99	11071,32
2974,14	10882,91
2975,30	11290,45
2976,46	10823,51
2977,61	13662,00
2978,77	11442,00
2979,92	10811,23
2981,08	11620,17
2982,23	11773,77
2983,38	11358,03
2984,54	11550,54
2985,69	10932,06
2986,84	10837,85
2987,99	10110,82
2989,15	9412,46
2990,30	9185,14
2991,45	8091,52
2992,60	8277,89
2993,75	8257,41
2994,90	7837,58
2996,05	7640,97
2997,20	6991,77
2998,35	6698,91
2999,49	6135,71
3000,64	5756,84
3001,79	5836,71
3002,94	5617,58
3004,08	5019,57
3005,23	5093,30
3006,38	5152,69
3007,52	4630,46
3008,67	4429,76
3009,81	4472,76
3010,96	4360,13
3012,10	4278,21
3013,25	4149,18
3014,39	4188,10
3015,53	3786,69
3016,67	3690,44
3017,82	3966,92
3018,96	3860,42
3020,10	3626,95
3021,24	3682,25
3022,38	3733,45
3023,52	3571,66
3024,66	3639,24
3025,80	3733,45
3026,94	3864,52
3028,08	3489,74
3029,22	3792,84
3030,36	3282,89
3031,50	3823,56
3032,63	3596,23
3033,77	3397,58
3034,91	3604,43
3036,04	3823,56
3037,18	3598,28
3038,32	3807,17
3039,45	3573,71
3040,59	3379,15
3041,72	3796,93
3042,86	3891,14
3043,99	3467,21
3045,12	3600,33
3046,26	3721,16
3047,39	3631,05
3048,52	3758,02
3049,65	3708,87
3050,78	3798,98
3051,92	3893,19
3053,05	3696,58
3054,18	3618,76
3055,31	3905,48
3056,44	4126,66
3057,57	4130,75
3058,70	4171,71
3059,82	3665,86
3060,95	3862,47
3062,08	3485,64
3063,21	3018,71
3064,34	4114,37
3065,46	4366,27
3066,59	4175,81
3067,71	4091,84
3068,84	4163,52
3069,97	4212,67
3071,09	4255,68
3072,22	4161,47
3073,34	4134,85
3074,46	4489,15
3075,59	4405,18
3076,71	4308,93
3077,83	4364,22
3078,96	4317,12
3080,08	4538,30
3081,20	4454,33
3082,32	4435,90
3083,44	4380,61
3084,56	4419,52
3085,68	4536,25
3086,80	4788,15
3087,92	4614,07
3089,04	4659,13
3090,16	4706,23
3091,28	5005,24
3092,40	4898,74
3093,51	4597,69
3094,63	4759,48
3095,75	4857,78
3096,87	4700,09
3097,98	5003,19
3099,10	4861,88
3100,21	4511,68
3101,33	4802,49
3102,44	5564,33
3103,56	5054,39
3104,67	5398,45
3105,79	5250,99
3106,90	5554,09
3108,01	5365,68
3109,12	5363,63
3110,24	5642,15
3111,35	5420,97
3112,46	5246,90
3113,57	5566,38
3114,68	5107,63
3115,79	5504,94
3116,90	6215,59
3118,01	6043,56
3119,12	6432,67
3120,23	6143,91
3121,34	5910,44
3122,45	5810,09
3123,56	6399,90
3124,66	5957,54
3125,77	6471,58
3126,88	6213,54
3127,98	6733,72
3129,09	6223,78
3130,20	6608,80
3131,30	6262,69
3132,41	6936,47
3133,51	6682,52
3134,61	6645,66
3135,72	6872,98
3136,82	6836,12
3137,93	7026,58
3139,03	7137,17
3140,13	7169,94
3141,23	7391,12
3142,33	7208,85
3143,44	7194,51
3144,54	7301,01
3145,64	7298,96
3146,74	7055,25
3147,84	7780,23
3148,94	7839,62
3150,04	7683,98
3151,14	8136,58
3152,23	7927,69
3153,33	8066,95
3154,43	8025,99
3155,53	8419,20
3156,63	8298,37
3157,72	8548,22
3158,82	8484,73
3159,91	8449,92
3161,01	8849,27
3162,11	7819,14
3163,20	8734,59
3164,30	8550,27
3165,39	6539,16
3166,48	8740,73
3167,58	8562,56
3168,67	8865,66
3169,76	8806,27
3170,86	8982,39
3171,95	9172,85
3173,04	8943,48
3174,13	9088,89
3175,22	9090,93
3176,31	9064,31
3177,40	9084,79
3178,49	9596,78
3179,58	9557,87
3180,67	9279,35
3181,76	9742,19
3182,85	9840,49
3183,94	9625,45
3185,03	10010,47
3186,11	8783,74
3187,20	9742,19
3188,29	9291,63
3189,37	9873,26
3190,46	9871,21
3191,55	9744,24
3192,63	9729,90
3193,72	9506,67
3194,80	9734,00
3195,89	10012,52
3196,97	9942,89
3198,05	10608,48
3199,14	9854,83
3200,22	10536,80
3201,30	10303,33
3202,38	10223,46
3203,47	10446,69
3204,55	10544,99
3205,63	10151,78
3206,71	9670,51
3207,79	10164,07
3208,87	10344,29
3209,95	10485,60
3211,03	10831,71
3212,11	10366,82
3213,19	9850,73
3214,27	10350,43
3215,34	10497,89
3216,42	11038,55
3217,50	10426,21
3218,58	10915,67
3219,65	10588,00
3220,73	10688,35
3221,80	10989,40
3222,88	10958,68
3223,96	11028,31
3225,03	11548,50
3226,10	11396,95
3227,18	11603,79
3228,25	10829,66
3229,33	11562,83
3230,40	10930,01
3231,47	11276,12
3232,54	11241,30
3233,62	11329,36
3234,69	11460,43
3235,76	11472,72
3236,83	11829,07
3237,90	12023,62
3238,97	11267,92
3240,04	11194,20
3241,11	11405,14
3242,18	11392,85
3243,25	11439,95
3244,32	10178,40
3245,39	11468,62
3246,45	11810,64
3247,52	11415,38
3248,59	11472,72
3249,66	11534,16
3250,72	11685,71
3251,79	11728,72
3252,85	11634,51
3253,92	11982,67
3254,98	11597,65
3256,05	11824,97
3257,11	11859,79
3258,18	11761,48
3259,24	11839,31
3260,30	11882,31
3261,37	11200,34
3262,43	11978,57
3263,49	11591,50
3264,55	11597,65
3265,62	11779,92
3266,68	11419,47
3267,74	11919,18
3268,80	11579,22
3269,86	11978,57
3270,92	11251,54
3271,98	11884,36
3273,04	11997,00
3274,10	11102,04
3275,16	11560,78
3276,21	11554,64
3277,27	10880,86
3278,33	11366,23
3279,39	9174,90
3280,44	11480,91
3281,50	11552,59
3282,56	10966,87
3283,61	11073,37
3284,67	11118,42
3285,72	11298,64
3286,78	10508,13
3287,83	11388,75
3288,88	11200,34
3289,94	11978,57
3290,99	11016,02
3292,04	10344,29
3293,10	11198,29
3294,15	11044,70
3295,20	11466,58
3296,25	11405,14
3297,30	11194,20
3298,36	10655,58
3299,41	11290,45
3300,46	10899,29
3301,51	10819,42
3302,56	10846,04
3303,61	10938,20
3304,65	11458,39
3305,70	11325,27
3306,75	11018,07
3307,80	11300,69
3308,85	11163,48
3309,89	11163,48
3310,94	11536,21
3311,99	11009,88
3313,03	11218,77
3314,08	11593,55
3315,12	11212,63
3316,17	10811,23
3317,21	11069,27
3318,26	12171,08
3319,30	10979,16
3320,35	11345,75
3321,39	11317,08
3322,43	11884,36
3323,48	11597,65
3324,52	11554,64
3325,56	10631,01
3326,60	11435,86
3327,64	11302,74
3328,68	11421,52
3329,73	11165,53
3330,77	11206,49
3331,81	11386,71
3332,85	11157,33
3333,88	11411,28
3334,92	11118,42
3335,96	11409,23
3337,00	11331,41
3338,04	11607,89
3339,08	11718,48
3340,11	11542,35
3341,15	11229,01
3342,19	11509,58
3343,22	11716,43
3344,26	11376,47
3345,30	11446,10
3346,33	11683,66
3347,37	11556,69
3348,40	11442,00
3349,43	11171,67
3350,47	11482,96
3351,50	11497,30
3352,54	11341,65
3353,57	11648,85
3354,60	11226,96
3355,63	11515,73
3356,67	11593,55
3357,70	11374,42
3358,73	10258,28
3359,76	11888,46
3360,79	11331,41
3361,82	11734,86
3362,85	11442,00
3363,88	11192,15
3364,91	11386,71
3365,94	11345,75
3366,97	11237,20
3367,99	11759,44
3369,02	11448,15
3370,05	10573,66
3371,08	11306,84
3372,10	10997,59
3373,13	11059,03
3374,16	11556,69
3375,18	10889,05
3376,21	11487,06
3377,23	11515,73
3378,26	11296,60
3379,28	11458,39
3380,31	11501,39
3381,33	11497,30
3382,35	11599,69
3383,38	11538,26
3384,40	11482,96
3385,42	11335,51
3386,45	11243,35
3387,47	11257,68
3388,49	11003,74
3389,51	11071,32
3390,53	11478,86
3391,55	11579,22
3392,57	11509,58
3393,59	11200,34
3394,61	11425,62
3395,63	11337,56
3396,65	11274,07
3397,67	10637,15
3398,69	11642,70
3399,70	11190,10
3400,72	11448,15
3401,74	11857,74
3402,76	10432,35
3403,77	11245,40
3404,79	11337,56
3405,80	11294,55
3406,82	11093,85
3407,83	10311,52
3408,85	11167,57
3409,86	11095,89
3410,88	11554,64
3411,89	11575,12
3412,91	11657,04
3413,92	11360,08
3414,93	11517,78
3415,94	11294,55
3416,96	10991,45
3417,97	10989,40
3418,98	11253,59
3419,99	13811,50
3421,00	11554,64
3422,01	11538,26
3423,02	11407,19
3424,03	11050,84
3425,04	11050,84
3426,05	11458,39
3427,06	11720,53
3428,07	11669,33
3429,08	11716,43
3430,09	11581,26
3431,09	11614,03
3432,10	11579,22
3433,11	11839,31
3434,12	11999,05
3435,12	11278,16
3436,13	11566,93
3437,13	11413,33
3438,14	10827,61
3439,14	11159,38
3440,15	10846,04
3441,15	11204,44
3442,16	11063,13
3443,16	11157,33
3444,16	10784,60
3445,17	10870,62
3446,17	10833,75
3447,17	11040,60
3448,17	10538,85
3449,18	11007,83
3450,18	10827,61
3451,18	11224,92
3452,18	11439,95
3453,18	11347,79
3454,18	10930,01
3455,18	11239,25
3456,18	11274,07
3457,18	11048,79
3458,18	10850,14
3459,17	10712,92
3460,17	10753,88
3461,17	10731,36
3462,17	10610,53
3463,17	10518,37
3464,16	10506,08
3465,16	10354,53
3466,15	10151,78
3467,15	10336,10
3468,15	10315,62
3469,14	10164,07
3470,14	10379,11
3471,13	10248,04
3472,13	10028,90
3473,12	10076,01
3474,11	9826,15
3475,11	9670,51
3476,10	9813,87
3477,09	9740,14
3478,08	9940,84
3479,08	9643,88
3480,07	9396,08
3481,06	9559,92
3482,05	9234,29
3483,04	9494,38
3484,03	9332,59
3485,02	9336,69
3486,01	9574,25
3487,00	8976,25
3487,99	8871,80
3488,98	9551,73
3489,97	8861,56
3490,95	8947,58
3491,94	9101,17
3492,93	8884,09
3493,92	8804,22
3494,90	8527,74
3495,89	8609,66
3496,88	8451,97
3497,86	7993,22
3498,85	8632,19
3499,83	8515,45
3500,82	8462,21
3501,80	8619,90
3502,79	8468,35
3503,77	8214,40
3504,75	7968,65
3505,74	8433,54
3506,72	8302,47
3507,70	8331,14
3508,68	8380,29
3509,67	8392,58
3510,65	7960,45
3511,63	8345,47
3512,61	8019,85
3513,59	7956,36
3514,57	7630,73
3515,55	7739,27
3516,53	7708,55
3517,51	8054,66
3518,49	7894,92
3519,47	7548,81
3520,45	7276,43
3521,42	7174,03
3522,40	7317,39
3523,38	7288,72
3524,36	7239,57
3525,33	7411,60
3526,31	7550,86
3527,29	7169,94
3528,26	6954,90
3529,24	7030,68
3530,21	7237,52
3531,19	7067,54
3532,16	7462,80
3533,14	7096,21
3534,11	7012,24
3535,08	7126,93
3536,06	7196,56
3537,03	7002,01
3538,00	6965,14
3538,98	6688,67
3539,95	6547,36
3540,92	6782,87
3541,89	6608,80
3542,86	6430,62
3543,83	6922,13
3544,80	6164,39
3545,77	6440,86
3546,74	6363,04
3547,71	6455,20
3548,68	6348,70
3549,65	5916,58
3550,62	6164,39
3551,59	6158,24
3552,56	6657,95
3553,52	6385,57
3554,49	6066,08
3555,46	6217,63
3556,42	5965,73
3557,39	5988,26
3558,36	5746,60
3559,32	5550,00
3560,29	5646,25
3561,25	5605,29
3562,22	5537,71
3563,18	5566,38
3564,15	5040,05
3565,11	5414,83
3566,07	5394,35
3567,04	5402,54
3568,00	5343,15
3568,96	5066,67
3569,92	5224,37
3570,89	5072,82
3571,85	5306,29
3572,81	5242,80
3573,77	5513,13
3574,73	5035,96
3575,69	4978,61
3576,65	5332,91
3577,61	4839,35
3578,57	4661,18
3579,53	4726,71
3580,49	4931,51
3581,45	4704,18
3582,40	4749,24
3583,36	4349,89
3584,32	5056,43
3585,28	4685,75
3586,23	4558,78
3587,19	4634,55
3588,15	4544,44
3589,10	5099,44
3590,06	4603,83
3591,01	4483,00
3591,97	4227,01
3592,92	4194,24
3593,88	4433,85
3594,83	4347,84
3595,78	4310,97
3596,74	3968,96
3597,69	4190,14
3598,64	4337,60
3599,60	4304,83
3600,55	4073,41
3601,50	3794,89
3602,45	4325,31
3603,40	4394,94
3604,35	4259,78
3605,31	3938,24
3606,26	3973,06
3607,21	4122,56
3608,16	3946,44
3609,10	3717,06
3610,05	3993,54
3611,00	3645,38
3611,95	3788,74
3612,90	3633,10
3613,85	3512,27
3614,79	3682,25
3615,74	3477,45
3616,69	3520,46
3617,63	3749,83
3618,58	3604,42
3619,53	3411,92
3620,47	3559,37
3621,42	3139,54
3622,36	3467,21
3623,31	5867,43
3624,25	3303,37
3625,20	3874,76
3626,14	3522,51
3627,08	3084,24
3628,03	3280,85
3628,97	3252,17
3629,91	3409,87
3630,85	3315,66
3631,80	3667,91
3632,74	3600,33
3633,68	2959,31
3634,62	3233,74
3635,56	3209,17
3636,50	2957,27
3637,44	3086,29
3638,38	3469,26
3639,32	3129,30
3640,26	2557,91
3641,20	3243,98
3642,14	2973,65
3643,08	2920,40
3644,01	3282,89
3644,95	3022,80
3645,89	2910,16
3646,83	3022,80
3647,76	2926,55
3648,70	2805,72
3649,63	2568,15
3650,57	2828,24
3651,51	2539,48
3652,44	2734,04
3653,38	2643,93
3654,31	2650,07
3655,24	2562,01
3656,18	2549,72
3657,11	2568,15
3658,05	2447,32
3658,98	2424,80
3659,91	2639,83
3660,84	2312,16
3661,78	2496,47
3662,71	2185,18
3663,64	2314,20
3664,57	2566,10
3665,50	2236,38
3666,43	2172,89
3667,36	1777,64
3668,29	2007,01
3669,22	1904,61
3670,15	2062,30
3671,08	1972,19
3672,01	2050,02
3672,94	2326,49
3673,86	1916,90
3674,79	1839,08
3675,72	1552,36
3676,65	1765,35
3677,57	1556,46
3678,50	1859,56
3679,43	1609,70
3680,35	1888,23
3681,28	1783,78
3682,20	1751,01
3683,13	1671,14
3684,05	1538,02
3684,98	1611,75
3685,90	1621,99
3686,83	1523,69
3687,75	1837,03
3688,67	1427,43
3689,60	1249,26
3690,52	1583,08
3691,44	1363,95
3692,36	1128,43
3693,28	1415,15
3694,21	1490,92
3695,13	1097,71
3696,05	1202,16
3696,97	1214,45
3697,89	1277,93
3698,81	1103,86
3699,73	1103,86
3700,65	1134,57
3701,57	886,77
3702,48	1079,28
3703,40	1142,77
3704,32	1241,07
3705,24	1167,34
3706,16	1284,08
3707,07	952,31
3707,99	1007,60
3708,91	976,88
3709,82	1083,38
3710,74	1034,22
3711,66	790,52
3712,57	995,31
3713,49	1507,31
3714,40	856,05
3715,31	722,93
3716,23	860,15
3717,14	890,87
3718,06	1013,74
3718,97	790,52
3719,88	671,73
3720,80	907,25
3721,71	0,00
3722,62	819,19
3723,53	0,00
3724,44	636,92
3725,35	0,00
3726,26	663,54
3727,18	-13004,60
3728,09	595,96
3729,00	761,84
3729,91	524,28
3730,81	464,89
3731,72	532,47
3732,63	509,94
3733,54	610,29
3734,45	755,70
3735,36	546,81
3736,26	997,36
3737,17	557,05
3738,08	671,73
3738,99	899,06
3739,89	655,35
3740,80	681,97
3741,70	344,06
3742,61	669,69
3743,51	983,03
3744,42	473,08
3745,32	319,48
3746,23	444,41
3747,13	432,12
3748,04	696,31
3748,94	645,11
3749,84	339,96
3750,74	544,76
3751,65	432,12
3752,55	444,41
3753,45	231,42
3754,35	456,70
3755,25	397,31
3756,16	536,57
3757,06	475,13
3757,96	360,44
3758,86	524,28
3759,76	397,31
3760,66	456,70
3761,55	532,47
3762,45	595,96
3763,35	563,19
3764,25	468,98
3765,15	587,77
3766,05	700,41
3766,94	481,27
3767,84	540,66
3768,74	507,90
3769,63	518,14
3770,53	362,49
3771,43	245,76
3772,32	411,64
3773,22	782,32
3774,11	360,44
3775,01	487,42
3775,90	493,56
3776,80	276,48
3777,69	665,59
3778,58	364,54
3779,48	471,03
3780,37	600,05
3781,26	495,61
3782,16	129,02
3783,05	161,79
3783,94	446,46
3784,83	524,28
3785,72	327,67
3786,61	337,91
3787,50	274,43
3788,39	552,95
3789,28	481,27
3790,17	370,68
3791,06	528,38
3791,95	569,34
3792,84	210,94
3793,73	315,39
3794,62	413,69
3795,51	456,70
3796,39	462,84
3797,28	331,77
3798,17	505,85
3799,06	178,17
3799,94	456,70
3800,83	618,49
3801,71	409,59
3802,60	348,15
3803,48	622,58
3804,37	511,99
3805,25	346,11
3806,14	208,89
3807,02	337,91
3807,91	395,26
3808,79	520,18
3809,67	319,48
3810,56	538,62
3811,44	165,89
3812,32	444,41
3813,20	280,57
3814,09	636,92
3814,97	264,19
3815,85	598,01
3816,73	425,98
3817,61	225,28
3818,49	260,09
3819,37	174,08
3820,25	413,69
3821,13	434,17
3822,01	440,31
3822,89	288,76
3823,77	249,85
3824,65	364,54
3825,52	135,17
3826,40	192,51
3827,28	550,90
3828,16	450,55
3829,03	120,83
3829,91	116,73
3830,79	256,00
3831,66	323,58
3832,54	376,83
3833,41	647,16
3834,29	59,39
3835,16	444,41
3836,04	296,96
3836,91	135,17
3837,79	511,99
3838,66	436,22
3839,53	442,36
3840,41	294,91
3841,28	374,78
3842,15	450,55
3843,02	264,19
3843,90	438,27
3844,77	385,02
3845,64	280,57
3846,51	100,35
3847,38	311,29
3848,25	331,77
3849,12	4,10
3849,99	0,00
3850,86	366,59
3851,73	301,05
3852,60	192,51
3853,47	276,48
3854,34	382,97
3855,21	452,60
3856,07	198,65
3856,94	18,43
3857,81	540,66
3858,68	258,04
3859,54	247,80
3860,41	428,03
3861,28	114,69
3862,14	522,23
3863,01	274,43
3863,87	190,46
3864,74	190,46
3865,60	430,07
3866,47	219,13
3867,33	290,81
3868,19	653,30
3869,06	116,73
3869,92	337,91
3870,78	454,65
3871,65	186,37
3872,51	528,38
3873,37	-182,27
3874,23	-8,19
3875,10	374,78
3875,96	57,34
3876,82	352,25
3877,68	507,90
3878,54	274,43
3879,40	77,82
3880,26	292,86
3881,12	313,34
3881,98	253,95
3882,84	440,31
3883,70	124,93
3884,55	309,24
3885,41	294,91
3886,27	354,30
3887,13	217,08
3887,99	157,69
3888,84	440,31
3889,70	352,25
3890,56	485,37
3891,41	389,11
3892,27	483,32
3893,12	143,36
3893,98	532,47
3894,83	141,31
3895,69	313,34
3896,54	264,19
3897,40	268,28
3898,25	200,70
3899,11	659,45
3899,96	276,48
3900,81	571,38
3901,66	145,41
3902,52	163,84
3903,37	380,92
3904,22	401,40
3905,07	423,93
3905,92	264,19
3906,78	620,53
3907,63	272,38
>>>>>End Processed Spectral Data<<<<<
