SpectraSuite Datei
++++++++++++++++++++++++++++++++++++
Datum: Wed Nov 28 13:01:12 CET 2018
Benutzer: Raman
Dark-Spektrum vorhanden: Ja
Referenz-Spektrum vorhanden: Ja
Zahl der probierten Teilspektren: 1
Spektrometer: USB4F00098
Integrationszeit (usec): 40000000 (USB4F00098)
Spektren Durchschnitt berechnet: 1 (USB4F00098)
Boxcar Glättung: 0 (USB4F00098)
Dunkelstromkorrektur: Nein (USB4F00098)
Puls/Lampe aktiviert: Nein (USB4F00098)
Correct for Detector Non-linearity: Nein (USB4F00098)
Streulichtkorrektur: Nein (USB4F00098)
Anzahl Pixel in verarbeitetem Spektrum: 3648
>>>>>Begin Processed Spectral Data<<<<<
-2184,52	-36,86
-2181,51	-36,86
-2178,50	-36,86
-2175,49	-18,43
-2172,49	-34,82
-2169,48	215,04
-2166,48	-167,93
-2163,48	-51,20
-2160,47	-47,10
-2157,47	88,06
-2154,47	-235,52
-2151,48	-110,59
-2148,48	114,69
-2145,49	98,30
-2142,49	-94,21
-2139,50	-40,96
-2136,51	65,53
-2133,52	2,05
-2130,53	442,36
-2127,54	790,52
-2124,55	761,84
-2121,57	933,87
-2118,58	522,23
-2115,60	423,93
-2112,62	925,68
-2109,64	645,11
-2106,66	802,80
-2103,68	538,62
-2100,70	557,05
-2097,73	423,93
-2094,75	813,04
-2091,78	520,18
-2088,81	382,97
-2085,83	448,51
-2082,86	714,74
-2079,90	598,01
-2076,93	694,26
-2073,96	681,97
-2071,00	335,87
-2068,03	825,33
-2065,07	368,63
-2062,11	686,07
-2059,15	677,88
-2056,19	614,39
-2053,23	841,72
-2050,27	854,00
-2047,32	819,19
-2044,36	954,35
-2041,41	452,60
-2038,46	557,05
-2035,51	466,94
-2032,56	980,98
-2029,61	782,32
-2026,66	616,44
-2023,72	735,22
-2020,77	794,61
-2017,83	870,39
-2014,88	616,44
-2011,94	380,92
-2009,00	524,28
-2006,06	587,77
-2003,13	1066,99
-2000,19	378,87
-1997,25	483,32
-1994,32	620,53
-1991,39	544,76
-1988,45	481,27
-1985,52	606,20
-1982,59	600,05
-1979,67	706,55
-1976,74	501,75
-1973,81	1099,76
-1970,89	679,93
-1967,96	671,73
-1965,04	544,76
-1962,12	804,85
-1959,20	706,55
-1956,28	405,50
-1953,36	618,49
-1950,45	731,12
-1947,53	659,45
-1944,62	696,31
-1941,70	714,74
-1938,79	698,36
-1935,88	366,59
-1932,97	743,41
-1930,06	729,08
-1927,15	684,02
-1924,25	438,27
-1921,34	405,50
-1918,44	354,30
-1915,54	655,35
-1912,63	598,01
-1909,73	794,61
-1906,83	917,49
-1903,94	542,71
-1901,04	368,63
-1898,14	944,11
-1895,25	497,66
-1892,36	825,33
-1889,46	634,87
-1886,57	262,14
-1883,68	585,72
-1880,79	729,08
-1877,91	731,12
-1875,02	583,67
-1872,13	804,85
-1869,25	581,62
-1866,37	681,97
-1863,48	518,14
-1860,60	968,69
-1857,72	251,90
-1854,84	428,03
-1851,97	352,25
-1849,09	612,34
-1846,22	587,77
-1843,34	370,68
-1840,47	413,69
-1837,60	571,38
-1834,73	647,16
-1831,86	598,01
-1828,99	317,44
-1826,12	712,69
-1823,26	778,23
-1820,39	258,04
-1817,53	860,15
-1814,67	399,35
-1811,80	456,70
-1808,94	399,35
-1806,08	675,83
-1803,23	471,03
-1800,37	446,46
-1797,51	851,95
-1794,66	618,49
-1791,81	247,80
-1788,95	593,91
-1786,10	575,48
-1783,25	430,07
-1780,40	407,55
-1777,56	-57,34
-1774,71	497,66
-1771,86	495,61
-1769,02	706,55
-1766,18	430,07
-1763,33	387,07
-1760,49	571,38
-1757,65	827,38
-1754,81	421,88
-1751,98	501,75
-1749,14	280,57
-1746,30	575,48
-1743,47	626,68
-1740,64	589,82
-1737,81	563,19
-1734,97	563,19
-1732,14	509,94
-1729,32	339,96
-1726,49	657,40
-1723,66	796,66
-1720,84	532,47
-1718,01	491,51
-1715,19	313,34
-1712,37	536,57
-1709,55	575,48
-1706,73	825,33
-1703,91	397,31
-1701,09	309,24
-1698,27	385,02
-1695,46	679,93
-1692,65	194,56
-1689,83	262,14
-1687,02	270,33
-1684,21	565,24
-1681,40	505,85
-1678,59	288,76
-1675,78	331,77
-1672,98	378,87
-1670,17	763,89
-1667,37	765,94
-1664,56	264,19
-1661,76	692,21
-1658,96	495,61
-1656,16	253,95
-1653,36	602,10
-1650,57	468,98
-1647,77	219,13
-1644,97	296,96
-1642,18	1216,49
-1639,39	507,90
-1636,60	753,65
-1633,80	364,54
-1631,01	413,69
-1628,23	430,07
-1625,44	593,91
-1622,65	929,78
-1619,87	567,29
-1617,08	423,93
-1614,30	286,72
-1611,52	245,76
-1608,74	411,64
-1605,96	589,82
-1603,18	722,93
-1600,40	606,20
-1597,62	514,04
-1594,85	256,00
-1592,07	440,31
-1589,30	581,62
-1586,53	833,52
-1583,76	417,79
-1580,99	458,75
-1578,22	141,31
-1575,45	448,51
-1572,68	481,27
-1569,92	352,25
-1567,15	626,68
-1564,39	299,00
-1561,63	595,96
-1558,86	882,67
-1556,10	346,11
-1553,34	589,81
-1550,59	421,88
-1547,83	528,38
-1545,07	620,53
-1542,32	303,10
-1539,56	524,28
-1536,81	552,95
-1534,06	313,34
-1531,31	499,70
-1528,56	540,66
-1525,81	761,84
-1523,06	419,83
-1520,32	3606,47
-1517,57	399,35
-1514,83	417,79
-1512,09	673,78
-1509,34	417,79
-1506,60	442,36
-1503,86	370,68
-1501,12	780,28
-1498,39	309,24
-1495,65	606,20
-1492,91	479,22
-1490,18	485,37
-1487,45	495,61
-1484,71	577,53
-1481,98	561,14
-1479,25	516,09
-1476,52	444,41
-1473,80	145,41
-1471,07	180,22
-1468,34	305,15
-1465,62	462,84
-1462,89	479,22
-1460,17	845,81
-1457,45	585,72
-1454,73	296,96
-1452,01	622,58
-1449,29	608,25
-1446,57	428,03
-1443,86	708,60
-1441,14	581,62
-1438,43	282,62
-1435,71	210,94
-1433,00	258,04
-1430,29	511,99
-1427,58	1566,70
-1424,87	475,13
-1422,16	552,95
-1419,46	198,65
-1416,75	321,53
-1414,05	489,46
-1411,34	706,55
-1408,64	2,05
-1405,94	391,16
-1403,24	450,55
-1400,54	403,45
-1397,84	9785,19
-1395,14	505,85
-1392,45	663,54
-1389,75	509,94
-1387,06	452,60
-1384,36	8,19
-1381,67	509,94
-1378,98	532,47
-1376,29	722,93
-1373,60	485,37
-1370,91	497,66
-1368,23	483,32
-1365,54	507,90
-1362,86	731,12
-1360,17	649,21
-1357,49	444,41
-1354,81	419,83
-1352,13	389,11
-1349,45	729,08
-1346,77	227,32
-1344,09	327,68
-1341,42	530,42
-1338,74	348,15
-1336,07	722,93
-1333,39	407,55
-1330,72	528,38
-1328,05	368,63
-1325,38	464,89
-1322,71	382,97
-1320,04	491,51
-1317,37	532,47
-1314,71	358,39
-1312,04	342,01
-1309,38	374,78
-1306,72	858,10
-1304,05	577,53
-1301,39	432,12
-1298,73	258,04
-1296,08	331,77
-1293,42	448,51
-1290,76	282,62
-1288,10	493,56
-1285,45	145,41
-1282,80	325,63
-1280,14	661,49
-1277,49	589,82
-1274,84	241,66
-1272,19	249,85
-1269,54	280,57
-1266,90	208,89
-1264,25	389,11
-1261,60	419,83
-1258,96	339,96
-1256,32	706,55
-1253,67	493,56
-1251,03	456,70
-1248,39	548,86
-1245,75	423,93
-1243,11	477,18
-1240,48	460,79
-1237,84	266,24
-1235,20	638,97
-1232,57	327,67
-1229,94	358,39
-1227,31	481,27
-1224,67	212,99
-1222,04	352,25
-1219,41	223,23
-1216,79	479,22
-1214,16	526,33
-1211,53	362,49
-1208,91	296,96
-1206,28	122,88
-1203,66	536,57
-1201,04	440,31
-1198,42	411,64
-1195,80	413,69
-1193,18	208,89
-1190,56	321,53
-1187,94	645,11
-1185,33	415,74
-1182,71	389,11
-1180,10	49,15
-1177,49	307,20
-1174,87	555,00
-1172,26	270,33
-1169,65	135,17
-1167,04	395,26
-1164,44	618,49
-1161,83	462,84
-1159,22	405,50
-1156,62	186,37
-1154,01	536,57
-1151,41	311,29
-1148,81	346,11
-1146,21	354,30
-1143,61	458,74
-1141,01	417,79
-1138,41	270,33
-1135,81	262,14
-1133,22	370,68
-1130,62	552,95
-1128,03	778,23
-1125,44	389,11
-1122,84	409,59
-1120,25	342,01
-1117,66	182,27
-1115,07	389,11
-1112,49	167,93
-1109,90	415,74
-1107,31	299,00
-1104,73	251,90
-1102,14	276,48
-1099,56	393,21
-1096,98	372,73
-1094,40	221,18
-1091,82	489,46
-1089,24	595,96
-1086,66	380,92
-1084,08	278,52
-1081,51	380,92
-1078,93	385,02
-1076,36	382,97
-1073,79	360,44
-1071,21	604,15
-1068,64	188,41
-1066,07	-104,45
-1063,50	573,43
-1060,93	638,97
-1058,37	507,90
-1055,80	540,66
-1053,24	229,37
-1050,67	602,10
-1048,11	499,70
-1045,55	479,22
-1042,99	264,19
-1040,42	321,53
-1037,87	681,97
-1035,31	149,50
-1032,75	393,21
-1030,19	468,98
-1027,64	595,96
-1025,08	516,09
-1022,53	219,13
-1019,98	428,03
-1017,43	96,25
-1014,88	266,24
-1012,33	182,27
-1009,78	309,24
-1007,23	235,52
-1004,68	303,10
-1002,14	417,79
-999,59	161,79
-997,05	669,69
-994,51	405,50
-991,96	270,33
-989,42	524,28
-986,88	440,31
-984,34	57,34
-981,81	442,36
-979,27	18,43
-976,73	317,44
-974,20	118,78
-971,66	569,34
-969,13	368,63
-966,60	516,09
-964,07	331,77
-961,54	28,67
-959,01	405,50
-956,48	311,29
-953,95	534,52
-951,43	393,21
-948,90	423,93
-946,38	258,04
-943,85	276,48
-941,33	407,55
-938,81	313,34
-936,29	348,15
-933,77	260,09
-931,25	217,08
-928,73	223,23
-926,22	583,67
-923,70	636,92
-921,19	368,63
-918,67	43,01
-916,16	421,88
-913,65	124,93
-911,14	202,75
-908,63	421,88
-906,12	88,06
-903,61	493,56
-901,10	581,62
-898,59	397,31
-896,09	415,74
-893,59	417,79
-891,08	550,90
-888,58	581,62
-886,08	649,21
-883,58	161,79
-881,08	434,17
-878,58	641,01
-876,08	548,86
-873,58	614,39
-871,09	514,04
-868,59	491,51
-866,10	628,73
-863,61	8,19
-861,12	430,07
-858,62	501,75
-856,13	618,49
-853,64	186,37
-851,16	337,91
-848,67	407,55
-846,18	524,28
-843,70	350,20
-841,21	352,25
-838,73	344,06
-836,25	270,33
-833,77	260,09
-831,28	428,03
-828,81	399,35
-826,33	235,52
-823,85	419,83
-821,37	401,40
-818,90	587,77
-816,42	325,63
-813,95	540,66
-811,47	419,83
-809,00	409,59
-806,53	335,87
-804,06	468,98
-801,59	735,22
-799,12	344,06
-796,65	620,53
-794,19	188,41
-791,72	104,45
-789,26	311,29
-786,79	266,24
-784,33	423,93
-781,87	354,30
-779,41	112,64
-776,95	292,86
-774,49	321,53
-772,03	210,94
-769,57	235,52
-767,12	165,89
-764,66	636,92
-762,21	606,20
-759,75	432,12
-757,30	92,16
-754,85	262,14
-752,40	-10,24
-749,95	129,02
-747,50	741,36
-745,05	495,61
-742,60	186,37
-740,16	362,49
-737,71	233,47
-735,27	235,52
-732,82	382,97
-730,38	428,03
-727,94	186,37
-725,50	376,83
-723,06	210,94
-720,62	212,99
-718,18	313,34
-715,74	532,47
-713,31	145,41
-710,87	368,63
-708,44	141,31
-706,01	325,63
-703,57	212,99
-701,14	317,44
-698,71	284,67
-696,28	319,48
-693,85	180,22
-691,42	350,20
-689,00	172,03
-686,57	460,79
-684,15	163,84
-681,72	147,45
-679,30	169,98
-676,88	296,96
-674,45	391,16
-672,03	159,74
-669,61	391,16
-667,20	378,87
-664,78	204,80
-662,36	-38,91
-659,94	243,71
-657,53	270,33
-655,12	387,07
-652,70	366,59
-650,29	491,51
-647,88	380,92
-645,47	405,50
-643,06	493,56
-640,65	342,01
-638,24	387,07
-635,83	268,28
-633,43	-249,85
-631,02	415,74
-628,62	542,71
-626,22	325,63
-623,81	-1961,95
-621,41	153,60
-619,01	86,01
-616,61	391,16
-614,21	436,22
-611,81	444,41
-609,42	423,93
-607,02	2019,30
-604,63	292,86
-602,23	405,50
-599,84	378,87
-597,45	256,00
-595,05	440,31
-592,66	696,31
-590,27	221,18
-587,88	493,56
-585,50	661,49
-583,11	487,42
-580,72	313,34
-578,34	454,65
-575,95	225,28
-573,57	278,52
-571,19	79,87
-568,80	311,29
-566,42	266,24
-564,04	311,29
-561,66	520,18
-559,29	342,01
-556,91	337,91
-554,53	233,47
-552,16	32,77
-549,78	694,26
-547,41	309,24
-545,03	507,90
-542,66	282,62
-540,29	178,17
-537,92	690,17
-535,55	397,31
-533,18	385,02
-530,81	311,29
-528,45	1914,85
-526,08	440,31
-523,72	401,40
-521,35	460,79
-518,99	278,52
-516,63	139,26
-514,27	372,73
-511,90	352,25
-509,54	598,01
-507,19	319,48
-504,83	659,45
-502,47	210,94
-500,11	380,92
-497,76	466,94
-495,40	280,57
-493,05	362,49
-490,70	536,57
-488,35	540,66
-486,00	460,79
-483,65	602,10
-481,30	1191,92
-478,95	501,75
-476,60	600,05
-474,25	372,73
-471,91	358,39
-469,56	567,29
-467,22	733,17
-464,88	499,70
-462,53	458,74
-460,19	626,68
-457,85	804,85
-455,51	284,67
-453,17	-5484,46
-450,84	356,35
-448,50	585,72
-446,16	440,31
-443,83	767,99
-441,49	634,87
-439,16	841,72
-436,83	694,26
-434,50	952,31
-432,16	577,53
-429,83	757,75
-427,50	620,53
-425,18	636,92
-422,85	831,48
-420,52	706,55
-418,20	301,05
-415,87	655,35
-413,55	811,00
-411,22	647,16
-408,90	317,44
-406,58	526,33
-404,26	518,14
-401,94	608,25
-399,62	501,75
-397,30	643,06
-394,99	493,56
-392,67	573,43
-390,35	495,61
-388,04	454,65
-385,73	778,23
-383,41	372,73
-381,10	587,77
-378,79	548,86
-376,48	485,37
-374,17	759,80
-371,86	542,71
-369,55	532,47
-367,25	493,56
-364,94	657,40
-362,64	552,95
-360,33	563,19
-358,03	413,69
-355,73	616,44
-353,42	608,25
-351,12	767,99
-348,82	442,36
-346,52	696,31
-344,23	471,03
-341,93	534,52
-339,63	657,40
-337,34	737,27
-335,04	251,90
-332,75	634,87
-330,45	653,30
-328,16	432,12
-325,87	407,55
-323,58	468,98
-321,29	272,38
-319,00	395,26
-316,71	8,19
-314,42	229,37
-312,14	167,93
-309,85	296,96
-307,57	399,35
-305,28	12,29
-303,00	135,17
-300,72	595,96
-298,44	440,31
-296,16	-12,29
-293,88	196,60
-291,60	200,70
-289,32	440,31
-287,04	92,16
-284,77	395,26
-282,49	-92,16
-280,22	157,69
-277,94	591,86
-275,67	319,48
-273,40	321,53
-271,13	280,57
-268,85	321,53
-266,59	-256,00
-264,32	83,97
-262,05	169,98
-259,78	249,85
-257,51	339,96
-255,25	159,74
-252,98	466,94
-250,72	440,31
-248,46	251,90
-246,20	126,97
-243,93	249,85
-241,67	-253,95
-239,41	161,79
-237,16	204,80
-234,90	129,02
-232,64	94,21
-230,38	342,01
-228,13	284,67
-225,87	126,97
-223,62	94,21
-221,37	55,30
-219,11	118,78
-216,86	104,45
-214,61	112,64
-212,36	180,22
-210,11	278,52
-207,87	143,36
-205,62	-28,67
-203,37	149,50
-201,13	206,84
-198,88	231,42
-196,64	206,84
-194,39	233,47
-192,15	10,24
-189,91	485,37
-187,67	411,64
-185,43	219,13
-183,19	260,09
-180,95	57,34
-178,72	366,59
-176,48	278,52
-174,24	-55,30
-172,01	196,61
-169,77	131,07
-167,54	321,53
-165,31	391,16
-163,08	161,79
-160,85	294,91
-158,62	38,91
-156,39	538,62
-154,16	188,41
-151,93	434,17
-149,70	192,51
-147,48	350,20
-145,25	344,06
-143,03	229,37
-140,81	430,07
-138,58	131,07
-136,36	184,32
-134,14	163,84
-131,92	364,54
-129,70	319,48
-127,48	77,82
-125,26	233,47
-123,05	-2,05
-120,83	286,72
-118,62	475,13
-116,40	378,87
-114,19	188,41
-111,97	-83,97
-109,76	178,17
-107,55	16,38
-105,34	417,79
-103,13	92,16
-100,92	294,91
-98,71	251,90
-96,51	178,17
-94,30	182,27
-92,09	434,17
-89,89	391,16
-87,69	346,11
-85,48	796,66
-83,28	155,65
-81,08	460,79
-78,88	624,63
-76,68	432,12
-74,48	122,88
-72,28	499,70
-70,08	618,49
-67,88	688,12
-65,69	438,27
-63,49	456,70
-61,30	542,71
-59,11	511,99
-56,91	71,68
-54,72	393,21
-52,53	305,15
-50,34	428,03
-48,15	485,37
-45,96	346,11
-43,77	253,95
-41,59	337,91
-39,40	133,12
-37,21	462,84
-35,03	552,95
-32,84	491,51
-30,66	761,84
-28,48	940,02
-26,30	927,73
-24,12	1374,19
-21,94	2564,06
-19,76	4460,48
-17,58	7860,10
-15,40	13522,74
-13,22	23787,16
-11,05	36410,84
-8,87	44772,69
-6,70	53562,57
-4,52	53744,84
-2,35	40297,88
-0,18	54781,12
1,99	51766,51
4,16	51014,90
6,33	44148,06
8,50	37410,25
10,67	30287,41
12,84	27919,96
15,00	22746,79
17,17	17501,94
19,33	14911,26
21,50	12289,86
23,66	9250,67
25,83	7206,80
27,99	4337,60
30,15	2953,17
32,31	1689,57
34,47	1255,40
36,63	980,98
38,79	1087,47
40,94	641,01
43,10	305,15
45,25	358,39
47,41	339,96
49,56	409,59
51,72	331,77
53,87	518,14
56,02	325,63
58,17	311,29
60,32	184,32
62,47	61,44
64,62	81,92
66,77	206,84
68,92	73,73
71,06	319,48
73,21	346,11
75,35	219,13
77,50	129,02
79,64	546,81
81,78	210,94
83,92	305,15
86,06	251,90
88,20	448,51
90,34	380,92
92,48	278,52
94,62	49,15
96,76	16,38
98,89	393,21
101,03	233,47
103,16	415,74
105,30	194,56
107,43	757,75
109,56	131,07
111,69	530,42
113,82	337,91
115,95	268,28
118,08	215,04
120,21	399,35
122,34	489,46
124,47	186,37
126,59	540,66
128,72	208,89
130,84	344,06
132,97	120,83
135,09	233,47
137,21	491,51
139,33	225,28
141,45	79,87
143,57	307,20
145,69	215,04
147,81	624,63
149,93	966,64
152,05	319,48
154,16	520,18
156,28	372,73
158,39	88,06
160,51	624,63
162,62	311,29
164,73	356,35
166,85	397,31
168,96	305,15
171,07	204,80
173,18	219,13
175,28	444,41
177,39	282,62
179,50	303,10
181,61	385,02
183,71	419,83
185,82	411,64
187,92	192,51
190,02	471,03
192,13	36,86
194,23	428,03
196,33	499,70
198,43	589,82
200,53	284,67
202,63	380,92
204,72	243,71
206,82	262,14
208,92	129,02
211,01	342,01
213,11	204,80
215,20	425,98
217,30	276,48
219,39	712,69
221,48	389,11
223,57	215,04
225,66	387,07
227,75	274,43
229,84	430,07
231,93	440,31
234,02	403,45
236,10	278,52
238,19	270,33
240,28	133,12
242,36	382,97
244,44	468,98
246,53	366,59
248,61	630,77
250,69	337,91
252,77	655,35
254,85	880,63
256,93	1081,33
259,01	870,39
261,09	1064,94
263,16	1150,96
265,24	1030,13
267,32	1464,30
269,39	1673,19
271,46	1621,99
273,54	1906,66
275,61	2025,44
277,68	2232,29
279,75	2209,76
281,82	2406,36
283,89	2140,13
285,96	2136,03
288,03	2224,09
290,10	2287,58
292,16	2353,12
294,23	2500,57
296,29	2441,18
298,36	2269,15
300,42	2189,28
302,49	2607,06
304,55	2310,11
306,61	2473,95
308,67	940,02
310,73	2340,83
312,79	2228,19
314,85	1980,39
316,90	2078,69
318,96	2252,77
321,02	2101,22
323,07	2154,46
325,13	2103,26
327,18	1982,43
329,24	2299,87
331,29	2224,09
333,34	2244,57
335,39	1923,04
337,44	2086,88
339,49	4294,59
341,54	2303,96
343,59	2179,04
345,64	2312,16
347,68	2252,77
349,73	1953,76
351,77	1935,33
353,82	2007,01
355,86	2062,30
357,90	2267,10
359,95	2189,28
361,99	2439,13
364,03	2504,67
366,07	2107,36
368,11	1861,60
370,15	2308,06
372,19	2197,47
374,22	2504,67
376,26	2344,92
378,29	2240,48
380,33	2166,75
382,36	2365,40
384,40	2375,64
386,43	-481,27
388,46	2377,69
390,49	2260,96
392,52	2197,47
394,55	2176,99
396,58	2441,18
398,61	2480,09
400,64	2615,26
402,67	2578,39
404,69	2723,80
406,72	2639,83
408,74	2815,96
410,77	2832,34
412,79	2615,26
414,81	2838,48
416,84	3037,14
418,86	3209,17
420,88	3008,47
422,90	3389,39
424,92	3502,03
426,94	3821,51
428,95	3598,28
430,97	3913,67
432,99	4011,97
435,00	3966,92
437,02	4331,45
439,03	4259,78
441,04	3913,67
443,06	4059,07
445,07	3407,82
447,08	3407,82
449,09	3278,80
451,10	3471,31
453,11	3330,00
455,12	3170,26
457,13	3033,04
459,13	2834,39
461,14	2813,91
463,14	2920,40
465,15	2910,16
467,15	2688,98
469,16	2432,99
471,16	2531,29
473,16	2676,70
475,16	2459,61
477,16	2496,47
479,16	2555,86
481,16	2521,05
483,16	2572,25
485,16	2519,00
487,15	2242,53
489,15	2551,77
491,15	2281,44
493,14	2355,16
495,14	2504,67
497,13	2324,44
499,12	2185,18
501,11	2338,78
503,11	2037,73
505,10	2387,93
507,09	2478,04
509,07	2041,82
511,06	2166,75
513,05	2035,68
515,04	2119,65
517,02	2244,57
519,01	2263,01
521,00	1931,23
522,98	2310,11
524,96	2385,88
526,95	2426,84
528,93	2299,87
530,91	2344,92
532,89	2435,03
534,87	2197,47
536,85	1132,53
538,83	2027,49
540,81	2426,84
542,78	2050,02
544,76	2002,91
546,74	2170,85
548,71	2222,05
550,69	2148,32
552,66	2209,76
554,63	2410,46
556,60	2181,09
558,58	2222,05
560,55	2004,96
562,52	2250,72
564,49	2129,89
566,46	2533,34
568,42	2174,94
570,39	2357,21
572,36	2435,03
574,32	2101,22
576,29	2400,22
578,25	2146,27
580,22	2033,63
582,18	2242,53
584,14	2131,94
586,11	2252,77
588,07	2156,51
590,03	1882,08
591,99	2031,58
593,95	2314,20
595,90	2164,70
597,86	2265,05
599,82	1978,34
601,78	2207,71
603,73	2123,74
605,69	2004,96
607,64	2220,00
609,59	2275,29
611,55	2019,30
613,50	1849,32
615,45	2127,84
617,40	1882,08
619,35	2195,42
621,30	2174,94
623,25	1957,86
625,20	2269,15
627,15	2566,10
629,09	2199,52
631,04	1910,75
632,98	2269,15
634,93	2019,30
636,87	1935,33
638,82	2103,26
640,76	2027,49
642,70	1839,08
644,64	2273,25
646,58	1988,58
648,52	2125,79
650,46	1931,23
652,40	2004,96
654,34	1824,74
656,27	2004,96
658,21	2064,35
660,15	2064,35
662,08	2043,87
664,02	2097,12
665,95	1808,36
667,88	1720,29
669,82	2197,47
671,75	2045,92
673,68	2011,11
675,61	2160,61
677,54	2103,26
679,47	2105,31
681,40	2254,81
683,32	2117,60
685,25	1902,56
687,18	2035,68
689,10	1845,22
691,03	2015,20
692,95	1955,81
694,87	2097,12
696,80	2029,54
698,72	1925,09
700,64	1906,66
702,56	1615,85
704,48	1884,13
706,40	1861,60
708,32	1980,39
710,24	1976,29
712,16	1941,47
714,07	2045,92
715,99	2207,71
717,90	1875,94
719,82	2039,78
721,73	2099,17
723,65	2054,11
725,56	2152,42
727,47	1920,99
729,38	1994,72
731,29	1970,15
733,20	2117,60
735,11	1970,15
737,02	1861,60
738,93	2144,22
740,84	2070,50
742,74	1935,33
744,65	2019,30
746,55	2054,11
748,46	1802,21
750,36	2090,98
752,27	1949,67
754,17	2076,64
756,07	2029,54
757,97	2158,56
759,87	2269,15
761,77	2152,42
763,67	2179,04
765,57	2150,37
767,47	2142,18
769,37	2047,97
771,26	2111,46
773,16	1955,81
775,06	2445,27
776,95	2170,85
778,84	2308,06
780,74	2072,54
782,63	2158,56
784,52	1867,75
786,41	2314,20
788,30	2213,85
790,19	2111,46
792,08	2090,98
793,97	2394,08
795,86	2070,50
797,75	2361,31
799,63	2291,68
801,52	2320,35
803,41	1986,53
805,29	2523,10
807,18	2029,54
809,06	2357,21
810,94	2412,51
812,82	2107,36
814,70	2330,59
816,59	2375,64
818,47	2455,51
820,35	2406,36
822,22	2402,27
824,10	2408,41
825,98	2224,09
827,86	2482,14
829,73	2521,05
831,61	2246,62
833,48	2338,78
835,36	2523,10
837,23	2426,84
839,10	2355,16
840,98	2369,50
842,85	2799,57
844,72	2639,83
846,59	2760,66
848,46	2873,30
850,33	3418,06
852,20	2949,08
854,06	3401,68
855,93	3590,09
857,80	4042,69
859,66	4431,80
861,53	4890,55
863,39	5629,87
865,26	7057,30
867,12	7980,93
868,98	10354,53
870,84	12537,66
872,71	14458,66
874,57	15535,89
876,43	17204,99
878,29	18145,00
880,14	18962,14
882,00	18386,66
883,86	17350,39
885,72	16451,33
887,57	13641,52
889,43	12977,98
891,28	11577,17
893,14	10088,29
894,99	9013,11
896,84	7583,63
898,69	6360,99
900,55	5529,52
902,40	4673,46
904,25	4409,28
906,10	3817,41
907,95	3784,65
909,79	3235,79
911,64	3225,55
913,49	3026,90
915,34	2797,53
917,18	2572,25
919,03	2635,74
920,87	2596,82
922,71	2654,17
924,56	2463,71
926,40	2172,89
928,24	2510,81
930,08	1957,86
931,92	2285,53
933,76	2271,20
935,60	2080,74
937,44	2566,10
939,28	2158,56
941,12	2338,78
942,95	2095,07
944,79	1943,52
946,62	2238,43
948,46	1843,17
950,29	2146,27
952,13	2070,50
953,96	2078,69
955,79	1929,19
957,62	2027,49
959,46	1851,36
961,29	1875,94
963,12	1894,37
964,94	1820,64
966,77	2101,22
968,60	2066,40
970,43	1955,81
972,25	2060,26
974,08	2084,83
975,91	1927,14
977,73	2113,50
979,55	1914,85
981,38	1781,73
983,20	1816,55
985,02	2115,55
986,84	2555,86
988,66	2041,82
990,49	2289,63
992,30	1966,05
994,12	2176,99
995,94	2113,50
997,76	2465,75
999,58	2310,11
1001,39	2201,57
1003,21	2187,23
1005,02	2179,04
1006,84	2041,82
1008,65	2269,15
1010,47	2543,58
1012,28	2310,11
1014,09	2473,95
1015,90	2676,70
1017,71	2660,31
1019,52	2701,27
1021,33	1695,72
1023,14	2834,39
1024,95	2688,98
1026,76	2871,25
1028,56	3508,17
1030,37	3641,29
1032,18	4034,50
1033,98	4188,10
1035,79	4382,65
1037,59	4892,60
1039,39	5195,70
1041,20	5566,38
1043,00	5801,90
1044,80	5707,69
1046,60	6297,50
1048,40	6246,30
1050,20	6113,19
1052,00	6277,02
1053,80	5529,52
1055,59	5588,91
1057,39	5812,14
1059,19	5332,91
1060,98	4841,40
1062,78	5035,96
1064,57	5128,11
1066,37	5468,08
1068,16	5296,05
1069,95	5332,91
1071,75	5906,34
1073,54	5791,66
1075,33	6440,86
1077,12	6469,53
1078,91	6690,71
1080,70	6676,38
1082,48	7542,67
1084,27	7454,61
1086,06	7974,79
1087,85	7585,68
1089,63	7790,47
1091,42	7907,21
1093,20	7554,96
1094,99	6737,82
1096,77	6633,37
1098,55	6526,88
1100,33	5619,63
1102,12	5363,63
1103,90	5048,24
1105,68	4763,58
1107,46	4532,15
1109,24	4282,30
1111,01	3979,20
1112,79	3954,63
1114,57	3614,66
1116,35	3633,10
1118,12	3637,19
1119,90	3409,87
1121,67	3059,67
1123,45	3297,23
1125,22	3043,28
1126,99	3100,62
1128,77	3205,07
1130,54	2938,84
1132,31	2877,40
1134,08	3174,35
1135,85	2895,83
1137,62	2852,82
1139,39	2600,92
1141,15	2488,28
1142,92	2314,20
1144,69	2166,75
1146,46	2174,94
1148,22	2185,18
1149,99	2252,77
1151,75	2084,83
1153,51	2224,09
1155,28	1867,75
1157,04	2133,98
1158,80	2375,64
1160,56	2138,08
1162,32	2144,22
1164,08	1949,67
1165,84	2029,54
1167,60	2191,33
1169,36	1908,71
1171,12	2140,13
1172,88	2031,58
1174,63	1982,43
1176,39	1920,99
1178,14	2080,74
1179,90	2123,74
1181,65	1796,07
1183,41	1908,71
1185,16	2211,81
1186,91	2158,56
1188,66	1851,36
1190,41	1855,46
1192,16	1806,31
1193,91	2097,12
1195,66	1785,83
1197,41	1964,00
1199,16	1839,08
1200,91	1877,99
1202,66	2019,30
1204,40	2240,48
1206,15	1961,95
1207,89	1765,35
1209,64	1945,57
1211,38	2033,63
1213,12	1791,97
1214,87	1658,85
1216,61	1912,80
1218,35	1832,93
1220,09	1865,70
1221,83	1986,53
1223,57	2144,22
1225,31	1929,19
1227,05	2174,94
1228,79	1824,74
1230,52	1851,36
1232,26	2140,13
1234,00	1929,19
1235,73	2201,57
1237,47	1937,38
1239,20	2054,11
1240,94	2275,29
1242,67	2031,58
1244,40	2166,75
1246,13	2220,00
1247,86	2070,50
1249,60	2236,38
1251,33	2144,22
1253,06	2383,84
1254,78	2275,29
1256,51	2455,51
1258,24	2662,36
1259,97	2564,06
1261,69	2893,78
1263,42	2871,25
1265,15	3000,27
1266,87	3151,82
1268,59	3219,41
1270,32	3688,39
1272,04	3471,31
1273,76	3725,26
1275,49	3928,00
1277,21	4059,07
1278,93	3837,89
1280,65	3747,78
1282,37	3540,94
1284,09	3667,91
1285,81	3540,94
1287,52	3604,42
1289,24	3162,06
1290,96	3074,00
1292,67	3010,51
1294,39	3205,07
1296,10	2713,56
1297,82	2592,73
1299,53	2559,96
1301,24	2564,06
1302,96	2557,91
1304,67	2451,42
1306,38	2437,08
1308,09	2478,04
1309,80	2017,25
1311,51	2439,13
1313,22	2334,68
1314,93	2097,12
1316,64	2062,30
1318,34	2166,75
1320,05	2070,50
1321,75	2072,54
1323,46	2379,74
1325,17	2117,60
1326,87	2187,23
1328,57	1734,63
1330,28	2097,12
1331,98	2052,06
1333,68	2148,32
1335,38	2101,22
1337,08	1914,85
1338,78	2226,14
1340,48	2187,23
1342,18	2107,36
1343,88	2306,01
1345,58	2064,35
1347,28	2394,08
1348,97	2162,65
1350,67	2260,96
1352,36	2039,78
1354,06	2263,01
1355,75	2318,30
1357,45	2240,48
1359,14	2162,65
1360,83	1933,28
1362,53	2572,25
1364,22	2269,15
1365,91	2349,02
1367,60	2201,57
1369,29	2328,54
1370,98	2242,53
1372,67	2310,11
1374,35	2357,21
1376,04	2414,56
1377,73	2897,88
1379,41	2660,31
1381,10	2654,17
1382,79	3008,47
1384,47	2887,64
1386,15	2875,35
1387,84	2785,24
1389,52	2676,70
1391,20	2770,90
1392,88	2496,47
1394,57	3039,19
1396,25	2889,68
1397,93	2744,28
1399,61	2721,75
1401,28	2936,79
1402,96	2977,75
1404,64	3055,57
1406,32	3020,75
1407,99	3061,71
1409,67	3088,34
1411,35	3184,59
1413,02	2971,60
1414,70	3655,62
1416,37	3483,59
1418,04	3598,28
1419,71	3370,96
1421,39	3624,90
1423,06	3882,95
1424,73	3364,81
1426,40	3594,19
1428,07	3610,57
1429,74	3626,95
1431,41	3841,99
1433,08	4069,31
1434,74	4296,64
1436,41	4695,99
1438,08	4708,28
1439,74	5136,31
1441,41	5119,92
1443,07	5822,38
1444,74	6528,92
1446,40	6815,64
1448,06	7481,23
1449,72	7747,47
1451,39	8120,20
1453,05	8337,28
1454,71	8200,07
1456,37	8263,55
1458,03	7305,10
1459,69	7661,45
1461,35	7526,29
1463,00	7014,29
1464,66	6375,33
1466,32	5646,25
1467,97	5482,41
1469,63	5230,51
1471,28	5242,80
1472,94	4634,55
1474,59	5093,30
1476,25	4460,48
1477,90	4646,84
1479,55	4261,82
1481,20	4362,17
1482,85	4493,24
1484,50	868,34
1486,15	4290,49
1487,80	3854,28
1489,45	3743,69
1491,10	3817,41
1492,75	3743,69
1494,40	3665,86
1496,04	3059,67
1497,69	3317,71
1499,33	3026,90
1500,98	3035,09
1502,62	2609,11
1504,27	2822,10
1505,91	2580,44
1507,55	2672,60
1509,19	2410,46
1510,84	2625,50
1512,48	2342,88
1514,12	2605,02
1515,76	2267,10
1517,40	2295,77
1519,04	2385,88
1520,67	2494,43
1522,31	2201,57
1523,95	1601,51
1525,59	2213,85
1527,22	2093,02
1528,86	1992,67
1530,49	2156,51
1532,13	1986,53
1533,76	2217,95
1535,39	1937,38
1537,03	-3956,68
1538,66	2093,02
1540,29	2095,07
1541,92	2228,19
1543,55	2230,24
1545,18	2230,24
1546,81	1855,46
1548,44	2191,33
1550,07	2029,54
1551,70	2283,49
1553,32	2082,78
1554,95	2011,11
1556,58	1923,04
1558,20	2230,24
1559,83	1691,62
1561,45	1568,74
1563,07	1800,16
1564,70	1654,76
1566,32	1533,93
1567,94	2004,96
1569,56	1816,55
1571,19	1984,48
1572,81	1986,53
1574,43	1642,47
1576,05	1912,80
1577,66	2093,02
1579,28	1716,20
1580,90	1535,98
1582,52	962,55
1584,14	1978,34
1585,75	1976,29
1587,37	1875,94
1588,98	1861,60
1590,60	2099,17
1592,21	1720,29
1593,82	1550,31
1595,44	1916,90
1597,05	1990,63
1598,66	1710,05
1600,27	1599,46
1601,88	1621,99
1603,49	-9402,22
1605,10	1865,70
1606,71	1832,93
1608,32	1621,99
1609,93	1990,63
1611,54	1910,75
1613,14	1634,28
1614,75	1898,47
1616,36	1920,99
1617,96	1974,24
1619,57	1980,39
1621,17	1789,92
1622,77	1578,98
1624,38	2117,60
1625,98	1912,80
1627,58	1992,67
1629,18	2029,54
1630,78	1757,16
1632,38	1531,88
1633,98	1935,33
1635,58	1904,61
1637,18	2101,22
1638,78	2015,20
1640,38	1791,97
1641,98	1775,59
1643,57	2199,52
1645,17	2193,37
1646,76	1705,96
1648,36	1601,51
1649,95	2025,44
1651,55	1695,72
1653,14	1888,23
1654,73	1828,84
1656,33	1855,46
1657,92	1892,32
1659,51	1660,90
1661,10	1888,23
1662,69	1777,64
1664,28	1804,26
1665,87	1755,11
1667,46	1863,65
1669,05	1744,87
1670,63	1775,59
1672,22	1644,52
1673,81	1630,18
1675,39	1591,27
1676,98	1724,39
1678,56	1437,67
1680,15	1837,03
1681,73	1763,30
1683,31	1814,50
1684,90	1920,99
1686,48	1581,03
1688,06	1609,70
1689,64	1767,40
1691,22	1484,78
1692,80	1552,36
1694,38	1460,20
1695,96	1771,49
1697,54	1886,18
1699,12	1589,22
1700,69	1744,87
1702,27	1482,73
1703,85	1484,78
1705,42	1566,70
1707,00	1499,11
1708,57	1654,76
1710,15	1556,46
1711,72	1343,47
1713,29	1677,29
1714,87	1509,35
1716,44	1478,63
1718,01	1386,47
1719,58	1413,10
1721,15	1505,26
1722,72	1464,30
1724,29	1665,00
1725,86	1495,02
1727,43	1570,79
1729,00	1957,86
1730,56	1284,08
1732,13	1396,71
1733,70	1247,21
1735,26	1753,06
1736,83	1527,78
1738,39	1421,29
1739,96	1533,93
1741,52	1384,43
1743,08	1224,69
1744,65	1175,53
1746,21	1404,91
1747,77	1540,07
1749,33	1296,36
1750,89	931,83
1752,45	1505,26
1754,01	1155,05
1755,57	1300,46
1757,13	1054,70
1758,69	1454,06
1760,24	1286,12
1761,80	1165,29
1763,36	1429,48
1764,91	1439,72
1766,47	1251,31
1768,02	1284,08
1769,58	1128,43
1771,13	1413,10
1772,68	1521,64
1774,24	1411,05
1775,79	1183,73
1777,34	1372,14
1778,89	1505,26
1780,44	1173,49
1781,99	1136,62
1783,54	1290,22
1785,09	1425,39
1786,64	1118,19
1788,19	1241,07
1789,73	931,83
1791,28	1300,46
1792,83	1224,69
1794,37	1234,93
1795,92	1409,00
1797,46	1093,62
1799,01	1447,91
1800,55	1417,19
1802,09	1193,97
1803,64	1296,36
1805,18	1406,95
1806,72	1075,18
1808,26	1130,48
1809,80	1437,67
1811,34	1335,28
1812,88	1179,63
1814,42	1171,44
1815,96	1245,16
1817,50	1349,61
1819,04	1294,32
1820,57	1157,10
1822,11	1232,88
1823,65	1318,89
1825,18	1255,40
1826,72	1279,98
1828,25	1355,76
1829,78	1124,33
1831,32	1101,81
1832,85	1249,26
1834,38	1374,19
1835,92	1284,08
1837,45	1185,77
1838,98	1204,21
1840,51	1396,71
1842,04	1308,65
1843,57	1136,62
1845,10	1447,91
1846,62	1286,12
1848,15	1177,58
1849,68	1126,38
1851,21	1646,57
1852,73	1071,09
1854,26	1091,57
1855,78	1357,80
1857,31	1347,56
1858,83	1013,74
1860,36	1411,05
1861,88	1017,84
1863,40	1370,09
1864,92	1216,49
1866,45	1314,80
1867,97	874,48
1869,49	1112,05
1871,01	1097,71
1872,53	1339,37
1874,05	1388,52
1875,57	1136,62
1877,08	1128,43
1878,60	1316,84
1880,12	1335,28
1881,64	1171,44
1883,15	1138,67
1884,67	1263,60
1886,18	1208,30
1887,70	1077,23
1889,21	1116,14
1890,72	1398,76
1892,24	1269,74
1893,75	874,48
1895,26	1372,14
1896,77	1196,01
1898,28	1013,74
1899,79	1118,19
1901,30	1310,70
1902,81	1036,27
1904,32	1120,24
1905,83	1122,29
1907,34	1318,89
1908,85	1030,13
1910,35	1212,40
1911,86	1339,37
1913,37	1134,57
1914,87	1062,90
1916,38	1220,59
1917,88	1142,77
1919,39	1316,84
1920,89	1484,78
1922,39	835,57
1923,89	925,68
1925,40	1202,16
1926,90	1208,30
1928,40	1128,43
1929,90	1112,05
1931,40	1349,61
1932,90	1322,99
1934,40	1206,25
1935,90	1288,17
1937,39	1105,90
1938,89	1433,58
1940,39	1196,01
1941,89	1294,32
1943,38	1234,93
1944,88	1097,71
1946,37	944,11
1947,87	1198,06
1949,36	1050,61
1950,85	1009,65
1952,35	966,64
1953,84	829,43
1955,33	940,02
1956,82	1015,79
1958,31	1179,63
1959,80	1318,89
1961,29	1230,83
1962,78	1144,81
1964,27	1099,76
1965,76	890,87
1967,25	1292,27
1968,74	1376,24
1970,22	1036,27
1971,71	1134,57
1973,20	1134,57
1974,68	1138,67
1976,17	919,54
1977,65	1255,40
1979,14	1259,50
1980,62	1169,39
1982,10	1228,78
1983,58	1378,28
1985,07	1097,71
1986,55	1007,60
1988,03	2260,96
1989,51	1081,33
1990,99	1155,05
1992,47	1140,72
1993,95	911,35
1995,43	1236,97
1996,91	1095,66
1998,38	1347,56
1999,86	1335,28
2001,34	1296,36
2002,81	1013,74
2004,29	1036,27
2005,76	1470,44
2007,24	1007,60
2008,71	1079,28
2010,19	1187,82
2011,66	1224,69
2013,13	1220,59
2014,60	1204,21
2016,08	1046,51
2017,55	968,69
2019,02	1245,17
2020,49	1320,94
2021,96	897,01
2023,43	1130,48
2024,90	925,68
2026,36	878,58
2027,83	978,93
2029,30	974,83
2030,77	1077,23
2032,23	1476,59
2033,70	1175,53
2035,16	995,31
2036,63	1236,97
2038,09	1169,39
2039,56	1273,84
2041,02	913,39
2042,48	1255,40
2043,95	985,07
2045,41	1376,23
2046,87	872,43
2048,33	1107,95
2049,79	1159,15
2051,25	1357,80
2052,71	1212,40
2054,17	1208,30
2055,63	1003,50
2057,09	1224,69
2058,54	901,11
2060,00	794,61
2061,46	1249,26
2062,91	995,31
2064,37	1228,78
2065,82	1128,43
2067,28	1183,73
2068,73	1009,65
2070,19	1007,60
2071,64	1105,90
2073,09	1153,01
2074,54	1009,65
2076,00	1110,00
2077,45	1116,14
2078,90	1124,33
2080,35	1034,22
2081,80	833,52
2083,25	1189,87
2084,70	1228,78
2086,14	948,21
2087,59	1128,43
2089,04	1114,09
2090,49	1482,73
2091,93	1138,67
2093,38	1236,97
2094,83	1124,33
2096,27	1155,05
2097,71	1253,36
2099,16	985,07
2100,60	1118,19
2102,05	1220,59
2103,49	1089,52
2104,93	1124,33
2106,37	1023,98
2107,81	1089,52
2109,25	878,58
2110,69	1361,90
2112,13	1075,18
2113,57	907,25
2115,01	1077,23
2116,45	1036,27
2117,89	1114,10
2119,33	1087,47
2120,76	989,17
2122,20	817,14
2123,63	1263,60
2125,07	1243,12
2126,51	1183,73
2127,94	909,30
2129,37	1208,30
2130,81	1013,74
2132,24	2951,12
2133,67	882,67
2135,11	1110,00
2136,54	929,78
2137,97	1040,37
2139,40	1099,76
2140,83	1183,73
2142,26	1085,42
2143,69	1232,88
2145,12	1118,19
2146,55	946,16
2147,97	872,43
2149,40	1023,98
2150,83	950,26
2152,25	1204,21
2153,68	1005,55
2155,11	1314,80
2156,53	1183,73
2157,96	935,92
2159,38	1372,14
2160,80	911,35
2162,23	1038,32
2163,65	837,62
2165,07	1325,04
2166,49	1376,24
2167,91	999,41
2169,33	917,49
2170,75	862,19
2172,17	1214,45
2173,59	1148,91
2175,01	956,40
2176,43	983,02
2177,85	794,61
2179,27	737,27
2180,68	974,83
2182,10	892,91
2183,52	1183,73
2184,93	909,30
2186,35	1216,49
2187,76	847,86
2189,18	1257,45
2190,59	1034,22
2192,00	1112,05
2193,42	837,62
2194,83	1245,17
2196,24	1173,49
2197,65	1097,71
2199,06	2924,50
2200,47	997,36
2201,88	978,93
2203,29	997,36
2204,70	784,37
2206,11	997,36
2207,52	1144,81
2208,93	999,41
2210,33	929,78
2211,74	829,43
2213,15	989,17
2214,55	1042,42
2215,96	1126,38
2217,36	917,49
2218,77	749,56
2220,17	907,25
2221,57	942,07
2222,98	940,02
2224,38	1044,46
2225,78	1126,38
2227,18	888,82
2228,58	1017,84
2229,99	1159,15
2231,39	950,26
2232,79	878,58
2234,18	1116,14
2235,58	778,23
2236,98	1126,38
2238,38	1032,18
2239,78	1021,94
2241,17	763,89
2242,57	919,54
2243,97	770,04
2245,36	995,31
2246,76	913,39
2248,15	991,22
2249,55	731,12
2250,94	1157,10
2252,33	1202,16
2253,73	1380,33
2255,12	1052,66
2256,51	800,76
2257,90	825,33
2259,29	937,97
2260,68	815,09
2262,07	1167,34
2263,46	890,87
2264,85	1044,46
2266,24	808,95
2267,63	815,09
2269,02	1005,55
2270,40	989,17
2271,79	1032,18
2273,18	1179,63
2274,56	903,15
2275,95	708,60
2277,33	892,91
2278,72	1120,24
2280,10	903,15
2281,49	913,39
2282,87	1005,55
2284,25	937,97
2285,63	829,43
2287,02	1003,50
2288,40	901,11
2289,78	882,67
2291,16	827,38
2292,54	901,11
2293,92	894,96
2295,30	1337,32
2296,68	829,43
2298,05	927,73
2299,43	1064,94
2300,81	878,58
2302,19	614,39
2303,56	649,21
2304,94	1073,14
2306,31	1023,98
2307,69	673,78
2309,06	1134,57
2310,44	1085,42
2311,81	960,50
2313,19	827,38
2314,56	858,10
2315,93	710,65
2317,30	843,76
2318,67	866,29
2320,04	995,31
2321,41	1062,90
2322,78	948,21
2324,15	1019,89
2325,52	1026,03
2326,89	999,41
2328,26	1036,27
2329,63	831,48
2331,00	833,52
2332,36	702,45
2333,73	952,31
2335,09	1015,79
2336,46	1007,60
2337,83	724,98
2339,19	518,14
2340,55	894,96
2341,92	1138,67
2343,28	800,76
2344,64	880,63
2346,01	583,67
2347,37	919,54
2348,73	878,58
2350,09	915,44
2351,45	610,29
2352,81	796,66
2354,17	-3921,86
2355,53	925,68
2356,89	720,89
2358,25	747,51
2359,61	665,59
2360,96	677,88
2362,32	729,08
2363,68	899,06
2365,03	864,24
2366,39	980,98
2367,74	712,69
2369,10	1019,89
2370,45	894,96
2371,81	620,53
2373,16	811,00
2374,51	862,19
2375,86	671,73
2377,22	952,31
2378,57	819,19
2379,92	897,01
2381,27	937,97
2382,62	792,56
2383,97	784,37
2385,32	1064,94
2386,67	784,37
2388,02	1013,74
2389,37	618,49
2390,71	800,76
2392,06	851,95
2393,41	919,54
2394,75	767,99
2396,10	944,11
2397,44	792,56
2398,79	1267,69
2400,13	788,47
2401,48	923,63
2402,82	694,26
2404,17	929,78
2405,51	931,83
2406,85	950,26
2408,19	679,93
2409,53	923,63
2410,87	757,75
2412,22	622,58
2413,56	563,19
2414,89	833,52
2416,23	1193,97
2417,57	747,51
2418,91	1044,46
2420,25	704,50
2421,59	1126,38
2422,92	833,52
2424,26	964,59
2425,60	767,99
2426,93	958,45
2428,27	985,07
2429,60	974,83
2430,94	718,84
2432,27	692,21
2433,60	671,73
2434,94	862,19
2436,27	1144,81
2437,60	919,54
2438,93	415,74
2440,27	851,95
2441,60	866,29
2442,93	690,17
2444,26	950,26
2445,59	516,09
2446,92	983,02
2448,24	634,87
2449,57	890,87
2450,90	937,97
2452,23	559,10
2453,55	829,43
2454,88	675,83
2456,21	1009,65
2457,53	970,74
2458,86	712,69
2460,18	837,62
2461,51	835,57
2462,83	940,02
2464,15	917,49
2465,48	704,50
2466,80	886,77
2468,12	325,63
2469,44	657,40
2470,76	839,67
2472,09	743,41
2473,41	688,12
2474,73	651,25
2476,05	786,42
2477,36	1011,70
2478,68	638,97
2480,00	856,05
2481,32	872,43
2482,64	854,00
2483,95	925,68
2485,27	1163,25
2486,59	706,55
2487,90	966,64
2489,22	720,89
2490,53	929,78
2491,85	976,88
2493,16	813,04
2494,47	897,01
2495,79	903,15
2497,10	735,22
2498,41	858,10
2499,72	854,00
2501,03	870,39
2502,35	876,53
2503,66	767,99
2504,97	1009,65
2506,28	817,14
2507,59	858,10
2508,89	630,77
2510,20	962,55
2511,51	550,90
2512,82	739,32
2514,12	116,73
2515,43	964,59
2516,74	864,24
2518,04	1789,92
2519,35	1073,14
2520,65	1036,27
2521,96	704,50
2523,26	804,85
2524,57	823,28
2525,87	851,95
2527,17	767,99
2528,47	718,84
2529,78	948,21
2531,08	794,61
2532,38	1202,16
2533,68	827,38
2534,98	952,31
2536,28	894,96
2537,58	1157,10
2538,88	1028,08
2540,18	819,19
2541,47	1433,58
2542,77	1257,45
2544,07	987,12
2545,37	1077,23
2546,66	980,98
2547,96	1038,32
2549,25	239,61
2550,55	991,22
2551,84	1173,49
2553,14	880,63
2554,43	1099,76
2555,72	1148,91
2557,02	1042,42
2558,31	784,37
2559,60	841,72
2560,89	1130,48
2562,18	1062,90
2563,48	1044,46
2564,77	772,08
2566,06	1083,38
2567,35	770,04
2568,63	944,11
2569,92	767,99
2571,21	1253,36
2572,50	745,46
2573,79	778,23
2575,07	835,57
2576,36	993,26
2577,65	804,85
2578,93	1032,18
2580,22	1234,93
2581,50	1273,84
2582,79	624,63
2584,07	1019,89
2585,36	845,81
2586,64	804,85
2587,92	1112,05
2589,20	790,52
2590,49	755,70
2591,77	964,59
2593,05	798,71
2594,33	573,43
2595,61	1103,86
2596,89	665,59
2598,17	888,82
2599,45	792,56
2600,73	1048,56
2602,00	884,72
2603,28	870,39
2604,56	872,43
2605,84	884,72
2607,11	999,41
2608,39	780,28
2609,67	942,07
2610,94	1114,10
2612,22	894,96
2613,49	507,90
2614,76	612,34
2616,04	907,25
2617,31	796,66
2618,58	811,00
2619,86	767,99
2621,13	1138,67
2622,40	808,95
2623,67	802,80
2624,94	1007,60
2626,21	929,78
2627,48	788,47
2628,75	872,43
2630,02	985,07
2631,29	815,09
2632,56	1062,90
2633,82	802,80
2635,09	774,13
2636,36	917,49
2637,63	829,43
2638,89	1128,43
2640,16	1263,60
2641,42	817,14
2642,69	1060,85
2643,95	833,52
2645,22	968,69
2646,48	804,85
2647,74	1107,95
2649,01	864,24
2650,27	948,21
2651,53	811,00
2652,79	856,05
2654,05	1142,77
2655,31	1036,27
2656,57	958,45
2657,83	763,89
2659,09	995,31
2660,35	958,45
2661,61	989,17
2662,87	1650,66
2664,13	1142,77
2665,38	966,64
2666,64	1007,60
2667,90	1077,23
2669,15	1277,93
2670,41	964,59
2671,67	759,80
2672,92	808,95
2674,17	1359,85
2675,43	1159,15
2676,68	1312,75
2677,94	1161,20
2679,19	1200,11
2680,44	1099,76
2681,69	1208,30
2682,95	1601,51
2684,20	1335,28
2685,45	1490,92
2686,70	1605,61
2687,95	1271,79
2689,20	1341,42
2690,45	1413,10
2691,70	1591,27
2692,94	1245,16
2694,19	1466,35
2695,44	1767,40
2696,69	1140,72
2697,93	1597,42
2699,18	1898,47
2700,43	1841,12
2701,67	1820,64
2702,92	2076,64
2704,16	2062,30
2705,41	2467,80
2706,65	1896,42
2707,89	2283,49
2709,14	2521,05
2710,38	2213,85
2711,62	2846,68
2712,86	2748,37
2714,11	2629,59
2715,35	2867,16
2716,59	2605,02
2717,83	2308,06
2719,07	2734,04
2720,31	2873,30
2721,55	3076,05
2722,78	2973,65
2724,02	3188,69
2725,26	3022,80
2726,50	3078,10
2727,73	3377,10
2728,97	3200,98
2730,21	2746,33
2731,44	3096,53
2732,68	2887,64
2733,91	2934,74
2735,15	3104,72
2736,38	2754,52
2737,62	3028,95
2738,85	2557,91
2740,08	2672,60
2741,32	2838,48
2742,55	2703,32
2743,78	2596,82
2745,01	2826,20
2746,24	2717,65
2747,47	2670,55
2748,70	1388,52
2749,93	2656,22
2751,16	3016,66
2752,39	2475,99
2753,62	3098,58
2754,85	2871,25
2756,08	2748,37
2757,30	2717,65
2758,53	2402,27
2759,76	2580,44
2760,98	2725,85
2762,21	2736,09
2763,43	2340,83
2764,66	2490,33
2765,88	2611,16
2767,11	2473,95
2768,33	2369,50
2769,55	2271,20
2770,78	1712,10
2772,00	2197,47
2773,22	2062,30
2774,44	2285,53
2775,67	2232,29
2776,89	2158,56
2778,11	2142,18
2779,33	2285,53
2780,55	2303,96
2781,77	2383,84
2782,99	2246,62
2784,20	2432,99
2785,42	2332,64
2786,64	2111,46
2787,86	2355,16
2789,07	2267,10
2790,29	2142,18
2791,51	2254,81
2792,72	2357,21
2793,94	2271,20
2795,15	2467,80
2796,37	1943,52
2797,58	2594,78
2798,80	2385,88
2800,01	2678,74
2801,22	2500,57
2802,44	2224,09
2803,65	2385,88
2804,86	2658,26
2806,07	2883,54
2807,28	2734,04
2808,49	2703,32
2809,70	3227,60
2810,91	2979,79
2812,12	3069,91
2813,33	3135,44
2814,54	3540,94
2815,75	3284,94
2816,96	3086,29
2818,16	3332,05
2819,37	3530,70
2820,58	4089,79
2821,78	3735,49
2822,99	4011,97
2824,20	4282,30
2825,40	4102,08
2826,61	4126,66
2827,81	4218,82
2829,01	4464,57
2830,22	4802,49
2831,42	4609,98
2832,62	4724,66
2833,83	4896,69
2835,03	5437,36
2836,23	5453,74
2837,43	5640,11
2838,63	5660,59
2839,83	5580,71
2841,03	5515,18
2842,23	6145,95
2843,43	6477,73
2844,63	6320,03
2845,83	6447,01
2847,03	6270,88
2848,22	6477,73
2849,42	6879,13
2850,62	7151,51
2851,81	7624,59
2853,01	7667,60
2854,21	8058,76
2855,40	7929,74
2856,60	7464,85
2857,79	8767,35
2858,99	9060,21
2860,18	9418,61
2861,37	9752,43
2862,57	10612,57
2863,76	10778,46
2864,95	11728,72
2866,14	11700,05
2867,33	13178,68
2868,52	14374,69
2869,72	15922,96
2870,91	17018,62
2872,10	18056,94
2873,28	19373,78
2874,47	19271,39
2875,66	19979,98
2876,85	23099,04
2878,04	23619,22
2879,23	23334,56
2880,41	24884,87
2881,60	24180,37
2882,79	24614,54
2883,97	25452,16
2885,16	26009,20
2886,34	25273,98
2887,53	24960,64
2888,71	24690,31
2889,90	23907,99
2891,08	24618,63
2892,26	23209,63
2893,45	22822,56
2894,63	23316,12
2895,81	23006,88
2896,99	22230,70
2898,17	21526,20
2899,36	22113,97
2900,54	21186,24
2901,72	19332,82
2902,90	19853,01
2904,08	19824,34
2905,26	19656,40
2906,43	19269,34
2907,61	19082,97
2908,79	18949,85
2909,97	19404,50
2911,14	18536,17
2912,32	19113,69
2913,50	19334,87
2914,67	18671,33
2915,85	20266,70
2917,02	20967,10
2918,20	22204,08
2919,37	23301,79
2920,55	24784,52
2921,72	24057,49
2922,90	28134,99
2924,07	29556,28
2925,24	33531,39
2926,41	35704,29
2927,58	37090,76
2928,76	38790,58
2929,93	38899,12
2931,10	40873,36
2932,27	41016,72
2933,44	40578,45
2934,61	41119,12
2935,78	33793,53
2936,95	38585,78
2938,11	38897,07
2939,28	37025,23
2940,45	34385,40
2941,62	33158,66
2942,78	29894,20
2943,95	28655,18
2945,12	27659,87
2946,28	26465,90
2947,45	24362,64
2948,61	22398,63
2949,78	21882,55
2950,94	20528,84
2952,10	19101,40
2953,27	18298,60
2954,43	17268,47
2955,59	16283,40
2956,76	15744,78
2957,92	15474,45
2959,08	14939,93
2960,24	14950,17
2961,40	14645,02
2962,56	14716,70
2963,72	14642,98
2964,88	15439,64
2966,04	15691,54
2967,20	15386,39
2968,36	16002,83
2969,52	16293,64
2970,67	16602,88
2971,83	17168,12
2972,99	17944,30
2974,14	17665,78
2975,30	18601,70
2976,46	16844,54
2977,61	18366,18
2978,77	18249,45
2979,92	16930,56
2981,08	17907,44
2982,23	17458,93
2983,38	17196,79
2984,54	16738,05
2985,69	16406,28
2986,84	15359,77
2987,99	14151,46
2989,15	13549,36
2990,30	12758,85
2991,45	11136,85
2992,60	11681,61
2993,75	10870,62
2994,90	10344,29
2996,05	9805,67
2997,20	8763,26
2998,35	8789,88
2999,49	8198,02
3000,64	7542,67
3001,79	7284,62
3002,94	6797,21
3004,08	6455,20
3005,23	6533,02
3006,38	6234,02
3007,52	5877,67
3008,67	5658,54
3009,81	5627,82
3010,96	5271,47
3012,10	4835,25
3013,25	5023,67
3014,39	5107,63
3015,53	4736,95
3016,67	4540,35
3017,82	4677,56
3018,96	4255,68
3020,10	4044,74
3021,24	4245,44
3022,38	4448,19
3023,52	4272,06
3024,66	4149,18
3025,80	4243,39
3026,94	4360,13
3028,08	3762,12
3029,22	4313,02
3030,36	3758,02
3031,50	4095,94
3032,63	4138,94
3033,77	3882,95
3034,91	3938,24
3036,04	3885,00
3037,18	4106,18
3038,32	4257,73
3039,45	3798,98
3040,59	3792,84
3041,72	4032,45
3042,86	4050,88
3043,99	3971,01
3045,12	4118,47
3046,26	4057,03
3047,39	4136,90
3048,52	3942,34
3049,65	3889,09
3050,78	3624,90
3051,92	4032,45
3053,05	3981,25
3054,18	3852,23
3055,31	4190,14
3056,44	4190,14
3057,57	4163,52
3058,70	4462,52
3059,82	3979,20
3060,95	3876,80
3062,08	3858,37
3063,21	3342,29
3064,34	3878,85
3065,46	4349,89
3066,59	4054,98
3067,71	4169,66
3068,84	4028,35
3069,97	4163,52
3071,09	4235,20
3072,22	4265,92
3073,34	4435,90
3074,46	4353,98
3075,59	4147,14
3076,71	4140,99
3077,83	4061,12
3078,96	4300,73
3080,08	4485,05
3081,20	4478,91
3082,32	4542,39
3083,44	4337,60
3084,56	4476,86
3085,68	4788,15
3086,80	4480,96
3087,92	4364,22
3089,04	4646,84
3090,16	4710,33
3091,28	4521,92
3092,40	4528,06
3093,51	4571,07
3094,63	4564,92
3095,75	4970,42
3096,87	4401,08
3097,98	4808,63
3099,10	5001,14
3100,21	4833,21
3101,33	4683,70
3102,44	5021,62
3103,56	4698,04
3104,67	5052,34
3105,79	5081,01
3106,90	5207,98
3108,01	5339,05
3109,12	5152,69
3110,24	5404,59
3111,35	5246,90
3112,46	7677,83
3113,57	5244,85
3114,68	5066,67
3115,79	5095,35
3116,90	5543,85
3118,01	6078,37
3119,12	5879,72
3120,23	5758,89
3121,34	5590,95
3122,45	5521,32
3123,56	5930,92
3124,66	5531,56
3125,77	5943,21
3126,88	5918,63
3127,98	6625,18
3129,09	6197,15
3130,20	6295,46
3131,30	5814,18
3132,41	6274,98
3133,51	6483,87
3134,61	6236,06
3135,72	6496,16
3136,82	6528,92
3137,93	6555,55
3139,03	6651,80
3140,13	6586,27
3141,23	6674,33
3142,33	7055,25
3143,44	6688,67
3144,54	7081,88
3145,64	6668,19
3146,74	6942,61
3147,84	7096,21
3148,94	7251,86
3150,04	7157,65
3151,14	7493,52
3152,23	7788,43
3153,33	7552,91
3154,43	7780,23
3155,53	7552,91
3156,63	8062,85
3157,72	8034,18
3158,82	8238,98
3159,91	7761,80
3161,01	8015,75
3162,11	8480,64
3163,20	8204,16
3164,30	8128,39
3165,39	6311,84
3166,48	8216,45
3167,58	8177,54
3168,67	8363,90
3169,76	8531,84
3170,86	8435,58
3171,95	8597,37
3173,04	8642,43
3174,13	8621,95
3175,22	8697,72
3176,31	8789,88
3177,40	8464,25
3178,49	8953,72
3179,58	8824,70
3180,67	8601,47
3181,76	9248,63
3182,85	9291,63
3183,94	9047,93
3185,03	9201,52
3186,11	8337,28
3187,20	9269,11
3188,29	8978,29
3189,37	9279,35
3190,46	9203,57
3191,55	9404,27
3192,63	9080,69
3193,72	9205,62
3194,80	9396,08
3195,89	9506,67
3196,97	9617,26
3198,05	10147,69
3199,14	9770,86
3200,22	10026,86
3201,30	9973,61
3202,38	9940,84
3203,47	9863,02
3204,55	9930,60
3205,63	9561,97
3206,71	9154,42
3207,79	9688,94
3208,87	10035,05
3209,95	9795,43
3211,03	10549,09
3212,11	10049,38
3213,19	9791,34
3214,27	10069,86
3215,34	10010,47
3216,42	10475,36
3217,50	9906,02
3218,58	10385,25
3219,65	10442,59
3220,73	10481,50
3221,80	10477,41
3222,88	10254,18
3223,96	10338,15
3225,03	10895,19
3226,10	10706,78
3227,18	10817,37
3228,25	10569,57
3229,33	10641,25
3230,40	10303,33
3231,47	10604,38
3232,54	10665,82
3233,62	10628,96
3234,69	10995,54
3235,76	11171,67
3236,83	11280,21
3237,90	11398,99
3238,97	10975,06
3240,04	10792,80
3241,11	10880,86
3242,18	10794,84
3243,25	10983,26
3244,32	9766,76
3245,39	10850,14
3246,45	11439,95
3247,52	11329,36
3248,59	11376,47
3249,66	11325,27
3250,72	11552,59
3251,79	11405,14
3252,85	11116,37
3253,92	11245,40
3254,98	11013,98
3256,05	11528,02
3257,11	11364,18
3258,18	11284,31
3259,24	11079,51
3260,30	11497,30
3261,37	11007,83
3262,43	11433,81
3263,49	11083,61
3264,55	11294,55
3265,62	11482,96
3266,68	10696,54
3267,74	11591,50
3268,80	11110,23
3269,86	11183,96
3270,92	10792,80
3271,98	11370,32
3273,04	11505,49
3274,10	10786,65
3275,16	10958,68
3276,21	11104,09
3277,27	10727,26
3278,33	10919,77
3279,39	10870,62
3280,44	10786,65
3281,50	10964,82
3282,56	10358,63
3283,61	10303,33
3284,67	10751,84
3285,72	11241,30
3286,78	10385,25
3287,83	10712,92
3288,88	10633,05
3289,94	11349,84
3290,99	10585,95
3292,04	10084,20
3293,10	10778,46
3294,15	10721,12
3295,20	11153,24
3296,25	10774,36
3297,30	10829,66
3298,36	10622,81
3299,41	10768,22
3300,46	10592,09
3301,51	10205,03
3302,56	10581,85
3303,61	10633,05
3304,65	10712,92
3305,70	10528,61
3306,75	10358,63
3307,80	10704,73
3308,85	10661,73
3309,89	10985,30
3310,94	11134,81
3311,99	10948,44
3313,03	10596,19
3314,08	10770,27
3315,12	10551,14
3316,17	10426,21
3317,21	10553,18
3318,26	11274,07
3319,30	10469,22
3320,35	10913,63
3321,39	10647,39
3322,43	11407,19
3323,48	10579,81
3324,52	11073,37
3325,56	10338,15
3326,60	10809,18
3327,64	10608,48
3328,68	10798,94
3329,73	10450,78
3330,77	11034,46
3331,81	10725,21
3332,85	10968,92
3333,88	10635,10
3334,92	10563,42
3335,96	11145,05
3337,00	10422,11
3338,04	10979,16
3339,08	11149,14
3340,11	11048,79
3341,15	10491,74
3342,19	10776,41
3343,22	11276,12
3344,26	10987,35
3345,30	10936,15
3346,33	11333,46
3347,37	10819,42
3348,40	10923,87
3349,43	10579,81
3350,47	11155,29
3351,50	10696,54
3352,54	10827,61
3353,57	11259,73
3354,60	11059,03
3355,63	11278,16
3356,67	11315,03
3357,70	11188,05
3358,73	10076,01
3359,76	11419,47
3360,79	11257,68
3361,82	10864,47
3362,85	10645,34
3363,88	10721,12
3364,91	10841,95
3365,94	10882,91
3366,97	10923,87
3367,99	11083,61
3369,02	11151,19
3370,05	10250,08
3371,08	11050,84
3372,10	10985,30
3373,13	11198,29
3374,16	11102,04
3375,18	10721,12
3376,21	10633,05
3377,23	11081,56
3378,26	11067,22
3379,28	10927,96
3380,31	10733,40
3381,33	11153,24
3382,35	11097,94
3383,38	11120,47
3384,40	10962,78
3385,42	10698,59
3386,45	10831,71
3387,47	11022,17
3388,49	11210,58
3389,51	10895,19
3390,53	10895,19
3391,55	10893,15
3392,57	11466,58
3393,59	11099,99
3394,61	11171,67
3395,63	11091,80
3396,65	10553,18
3397,67	10559,33
3398,69	11003,74
3399,70	10631,01
3400,72	11165,53
3401,74	11462,48
3402,76	10454,88
3403,77	11036,50
3404,79	11110,23
3405,80	11085,65
3406,82	10721,12
3407,83	10413,92
3408,85	10645,34
3409,86	10649,44
3410,88	11552,59
3411,89	11546,45
3412,91	11130,71
3413,92	11112,28
3414,93	11018,07
3415,94	11116,37
3416,96	10786,65
3417,97	10624,86
3418,98	10905,43
3419,99	13291,32
3421,00	11409,23
3422,01	11212,63
3423,02	11034,46
3424,03	10557,28
3425,04	10764,12
3426,05	10997,59
3427,06	11556,69
3428,07	11577,17
3429,08	11427,67
3430,09	11177,81
3431,09	11349,84
3432,10	11607,89
3433,11	11472,72
3434,12	11460,43
3435,12	11411,28
3436,13	10841,95
3437,13	10993,50
3438,14	10764,12
3439,14	10962,78
3440,15	10571,61
3441,15	10901,34
3442,16	10561,37
3443,16	10852,19
3444,16	10829,66
3445,17	10764,12
3446,17	10483,55
3447,17	10631,01
3448,17	10436,45
3449,18	10733,40
3450,18	10794,84
3451,18	11083,61
3452,18	11315,03
3453,18	10964,82
3454,18	10772,32
3455,18	10968,92
3456,18	10895,19
3457,18	10895,19
3458,18	10786,65
3459,17	10399,59
3460,17	10491,74
3461,17	9987,94
3462,17	10596,19
3463,17	10391,39
3464,16	10522,46
3465,16	10153,83
3466,15	9715,56
3467,15	10211,17
3468,15	9942,89
3469,14	9783,15
3470,14	9951,08
3471,13	10182,50
3472,13	9942,89
3473,12	9729,90
3474,11	9885,55
3475,11	9789,29
3476,10	9559,92
3477,09	9578,35
3478,08	9727,85
3479,08	9373,55
3480,07	9097,08
3481,06	9346,93
3482,05	8955,77
3483,04	9117,56
3484,03	9363,31
3485,02	9099,13
3486,01	9402,22
3487,00	9082,74
3487,99	8773,50
3488,98	9047,93
3489,97	8376,19
3490,95	8529,79
3491,94	8677,24
3492,93	8617,85
3493,92	9183,09
3494,90	8003,46
3495,89	8533,89
3496,88	8218,50
3497,86	8202,11
3498,85	8445,82
3499,83	8578,94
3500,82	8458,11
3501,80	8433,54
3502,79	8277,89
3503,77	8036,23
3504,75	8159,11
3505,74	8114,05
3506,72	8095,62
3507,70	8140,68
3508,68	8066,95
3509,67	8136,58
3510,65	7772,04
3511,63	7958,41
3512,61	7526,29
3513,59	7591,82
3514,57	7235,47
3515,55	7260,05
3516,53	7589,77
3517,51	7919,50
3518,49	7743,37
3519,47	7557,00
3520,45	6926,23
3521,42	7225,23
3522,40	7188,37
3523,38	6934,42
3524,36	7116,69
3525,33	7401,36
3526,31	7208,85
3527,29	6936,47
3528,26	6565,79
3529,24	7253,91
3530,21	6934,42
3531,19	7059,35
3532,16	6864,79
3533,14	6819,74
3534,11	6694,81
3535,08	6920,09
3536,06	7106,45
3537,03	6576,03
3538,00	6965,14
3538,98	6543,26
3539,95	6406,05
3540,92	6385,57
3541,89	6365,09
3542,86	6444,96
3543,83	6383,52
3544,80	5717,93
3545,77	6283,17
3546,74	6352,80
3547,71	5779,37
3548,68	5887,91
3549,65	5713,83
3550,62	5873,57
3551,59	5679,02
3552,56	6158,24
3553,52	6086,56
3554,49	5926,82
3555,46	5947,30
3556,42	5779,37
3557,39	5746,60
3558,36	5664,68
3559,32	5103,54
3560,29	5461,93
3561,25	5173,17
3562,22	5255,09
3563,18	5418,93
3564,15	5076,91
3565,11	5124,02
3566,07	5085,11
3567,04	5283,76
3568,00	4964,28
3568,96	4800,44
3569,92	5171,12
3570,89	4898,74
3571,85	5101,49
3572,81	4939,70
3573,77	5001,14
3574,73	5113,78
3575,69	4775,86
3576,65	4755,38
3577,61	4376,51
3578,57	4552,63
3579,53	4618,17
3580,49	4542,39
3581,45	4716,47
3582,40	4265,92
3583,36	4163,52
3584,32	4700,09
3585,28	4591,55
3586,23	4523,96
3587,19	4396,99
3588,15	4194,24
3589,10	4333,50
3590,06	4222,91
3591,01	3962,82
3591,97	3977,16
3592,92	4071,36
3593,88	4251,58
3594,83	3846,09
3595,78	3897,28
3596,74	3921,86
3597,69	3762,12
3598,64	3907,52
3599,60	3950,53
3600,55	3749,83
3601,50	3647,43
3602,45	3952,58
3603,40	3921,86
3604,35	3882,95
3605,31	3610,57
3606,26	3655,62
3607,21	3626,95
3608,16	3792,84
3609,10	3768,26
3610,05	3631,05
3611,00	3475,40
3611,95	3506,12
3612,90	3272,65
3613,85	3459,02
3614,79	3655,62
3615,74	3315,66
3616,69	3227,60
3617,63	3551,18
3618,58	3438,54
3619,53	3301,33
3620,47	3192,78
3621,42	3080,15
3622,36	3262,41
3623,31	3663,82
3624,25	3319,76
3625,20	3360,72
3626,14	3325,90
3627,08	3045,33
3628,03	3010,51
3628,97	3153,87
3629,91	3104,72
3630,85	3008,47
3631,80	3047,38
3632,74	3549,13
3633,68	2738,13
3634,62	2686,93
3635,56	2916,31
3636,50	2795,48
3637,44	2768,85
3638,38	2949,08
3639,32	2856,92
3640,26	2439,13
3641,20	2779,09
3642,14	2770,90
3643,08	2609,11
3644,01	3045,33
3644,95	2688,98
3645,89	2781,14
3646,83	2738,13
3647,76	2590,68
3648,70	2570,20
3649,63	2418,65
3650,57	2607,06
3651,51	2322,40
3652,44	2475,99
3653,38	2545,63
3654,31	2539,48
3655,24	2467,80
3656,18	2363,36
3657,11	2586,58
3658,05	2351,07
3658,98	2463,71
3659,91	2396,12
3660,84	2162,66
3661,78	2142,18
3662,71	2084,83
3663,64	2072,54
3664,57	2342,88
3665,50	1931,23
3666,43	2029,54
3667,36	1660,90
3668,29	1667,05
3669,22	1880,04
3670,15	1873,89
3671,08	2041,82
3672,01	2144,22
3672,94	1697,77
3673,86	1951,71
3674,79	1980,39
3675,72	1535,98
3676,65	1427,43
3677,57	1546,22
3678,50	2035,68
3679,43	1423,34
3680,35	1665,00
3681,28	1519,59
3682,20	1753,06
3683,13	1564,65
3684,05	1789,92
3684,98	1562,60
3685,90	1544,17
3686,83	1665,00
3687,75	1632,23
3688,67	1193,97
3689,60	1304,56
3690,52	1525,74
3691,44	1148,91
3692,36	1363,95
3693,28	1208,30
3694,21	1349,61
3695,13	1241,07
3696,05	1169,39
3696,97	1087,47
3697,89	1165,29
3698,81	1028,08
3699,73	862,19
3700,65	1142,77
3701,57	1101,81
3702,48	1155,05
3703,40	788,47
3704,32	1136,62
3705,24	1134,57
3706,16	1030,13
3707,07	923,63
3707,99	782,32
3708,91	872,43
3709,82	1050,61
3710,74	1001,46
3711,66	782,32
3712,57	774,13
3713,49	1327,08
3714,40	821,24
3715,31	856,05
3716,23	1019,89
3717,14	704,50
3718,06	978,93
3718,97	821,24
3719,88	501,75
3720,80	880,63
3721,71	0,00
3722,62	813,04
3723,53	0,00
3724,44	757,75
3725,35	0,00
3726,26	751,60
3727,18	33402,37
3728,09	528,38
3729,00	839,67
3729,91	577,53
3730,81	505,85
3731,72	555,00
3732,63	694,26
3733,54	460,79
3734,45	511,99
3735,36	774,13
3736,26	671,73
3737,17	458,74
3738,08	581,62
3738,99	634,87
3739,89	550,90
3740,80	481,27
3741,70	450,55
3742,61	690,17
3743,51	921,59
3744,42	487,42
3745,32	329,72
3746,23	413,69
3747,13	337,91
3748,04	552,95
3748,94	468,98
3749,84	503,80
3750,74	595,96
3751,65	495,61
3752,55	505,85
3753,45	309,24
3754,35	346,11
3755,25	335,87
3756,16	479,22
3757,06	491,51
3757,96	323,58
3758,86	665,59
3759,76	395,26
3760,66	346,11
3761,55	620,53
3762,45	698,36
3763,35	366,59
3764,25	536,57
3765,15	380,92
3766,05	534,52
3766,94	767,99
3767,84	440,31
3768,74	524,28
3769,63	528,38
3770,53	358,39
3771,43	235,52
3772,32	450,55
3773,22	675,83
3774,11	479,22
3775,01	401,40
3775,90	544,76
3776,80	92,16
3777,69	516,09
3778,58	561,14
3779,48	489,46
3780,37	397,31
3781,26	577,53
3782,16	315,39
3783,05	57,34
3783,94	409,59
3784,83	575,48
3785,72	546,81
3786,61	182,27
3787,50	495,61
3788,39	364,54
3789,28	550,90
3790,17	346,11
3791,06	460,79
3791,95	432,12
3792,84	288,76
3793,73	245,76
3794,62	442,36
3795,51	438,27
3796,39	583,67
3797,28	428,03
3798,17	331,77
3799,06	380,92
3799,94	391,16
3800,83	290,81
3801,71	378,87
3802,60	485,37
3803,48	587,77
3804,37	413,69
3805,25	243,71
3806,14	278,52
3807,02	264,19
3807,91	364,54
3808,79	548,86
3809,67	671,73
3810,56	550,90
3811,44	546,81
3812,32	229,37
3813,20	63,49
3814,09	215,04
3814,97	231,42
3815,85	612,34
3816,73	403,45
3817,61	268,28
3818,49	305,15
3819,37	118,78
3820,25	456,70
3821,13	438,27
3822,01	231,42
3822,89	280,57
3823,77	86,01
3824,65	329,72
3825,52	290,81
3826,40	274,43
3827,28	417,79
3828,16	585,72
3829,03	364,54
3829,91	-227,32
3830,79	208,89
3831,66	520,18
3832,54	167,93
3833,41	370,68
3834,29	188,41
3835,16	190,46
3836,04	559,10
3836,91	0,00
3837,79	694,26
3838,66	430,07
3839,53	448,51
3840,41	272,38
3841,28	423,93
3842,15	284,67
3843,02	45,06
3843,90	415,74
3844,77	409,59
3845,64	407,55
3846,51	313,34
3847,38	505,85
3848,25	331,77
3849,12	116,73
3849,99	90,11
3850,86	317,44
3851,73	231,42
3852,60	339,96
3853,47	274,43
3854,34	206,84
3855,21	354,30
3856,07	147,45
3856,94	153,60
3857,81	311,29
3858,68	368,63
3859,54	190,46
3860,41	198,65
3861,28	364,54
3862,14	419,83
3863,01	323,58
3863,87	432,12
3864,74	-57,34
3865,60	399,35
3866,47	536,57
3867,33	376,83
3868,19	344,06
3869,06	149,50
3869,92	270,33
3870,78	380,92
3871,65	501,75
3872,51	647,16
3873,37	-823,28
3874,23	192,51
3875,10	278,52
3875,96	198,65
3876,82	217,08
3877,68	249,85
3878,54	270,33
3879,40	219,13
3880,26	227,32
3881,12	409,59
3881,98	272,38
3882,84	126,97
3883,70	81,92
3884,55	174,08
3885,41	188,41
3886,27	325,63
3887,13	292,86
3887,99	329,72
3888,84	415,74
3889,70	253,95
3890,56	321,53
3891,41	299,00
3892,27	393,21
3893,12	274,43
3893,98	247,80
3894,83	145,41
3895,69	215,04
3896,54	342,01
3897,40	387,07
3898,25	249,85
3899,11	759,80
3899,96	116,73
3900,81	407,55
3901,66	206,84
3902,52	303,10
3903,37	497,66
3904,22	438,27
3905,07	409,59
3905,92	266,24
3906,78	509,94
3907,63	174,08
>>>>>End Processed Spectral Data<<<<<
