SpectraSuite Datei
++++++++++++++++++++++++++++++++++++
Datum: Wed Nov 28 12:02:00 CET 2018
Benutzer: Raman
Dark-Spektrum vorhanden: Ja
Referenz-Spektrum vorhanden: Nein
Zahl der probierten Teilspektren: 1
Spektrometer: USB4F00098
Integrationszeit (usec): 25000000 (USB4F00098)
Spektren Durchschnitt berechnet: 1 (USB4F00098)
Boxcar Glättung: 0 (USB4F00098)
Dunkelstromkorrektur: Nein (USB4F00098)
Puls/Lampe aktiviert: Nein (USB4F00098)
Correct for Detector Non-linearity: Nein (USB4F00098)
Streulichtkorrektur: Nein (USB4F00098)
Anzahl Pixel in verarbeitetem Spektrum: 3648
>>>>>Begin Processed Spectral Data<<<<<
-2184,52	-86,01
-2181,51	-86,01
-2178,50	-86,01
-2175,49	-55,30
-2172,49	-108,54
-2169,48	6815,64
-2166,48	8189,83
-2163,48	5007,28
-2160,47	6363,04
-2157,47	10714,97
-2154,47	11120,47
-2151,48	7468,94
-2148,48	8173,44
-2145,49	4691,90
-2142,49	3526,60
-2139,50	5470,12
-2136,51	4351,93
-2133,52	3741,64
-2130,53	7376,78
-2127,54	9492,34
-2124,55	12191,56
-2121,57	8374,14
-2118,58	5810,09
-2115,60	11804,49
-2112,62	8845,18
-2109,64	12289,86
-2106,66	8236,93
-2103,68	8722,30
-2100,70	8394,62
-2097,73	11085,65
-2094,75	7661,45
-2091,78	7362,45
-2088,81	12158,79
-2085,83	9195,38
-2082,86	17006,33
-2079,90	10092,39
-2076,93	8476,54
-2073,96	5517,23
-2071,00	16676,61
-2068,03	9705,32
-2065,07	8347,52
-2062,11	8914,81
-2059,15	6371,23
-2056,19	12126,02
-2053,23	11861,84
-2050,27	9586,54
-2047,32	11415,38
-2044,36	12791,61
-2041,41	11128,66
-2038,46	7931,78
-2035,51	7442,32
-2032,56	9361,27
-2029,61	8443,78
-2026,66	7118,74
-2023,72	10190,69
-2020,77	11241,30
-2017,83	10237,80
-2014,88	8136,58
-2011,94	6021,03
-2009,00	14321,45
-2006,06	12070,73
-2003,13	13637,42
-2000,19	5406,64
-1997,25	9054,07
-1994,32	7837,58
-1991,39	10901,34
-1988,45	9928,55
-1985,52	7106,45
-1982,59	11073,37
-1979,67	6041,51
-1976,74	10428,26
-1973,81	9418,61
-1970,89	14710,56
-1967,96	9088,89
-1965,04	12795,71
-1962,12	10567,52
-1959,20	8056,71
-1956,28	10434,40
-1953,36	7217,04
-1950,45	6805,40
-1947,53	13174,58
-1944,62	7247,76
-1941,70	7272,34
-1938,79	10372,96
-1935,88	17825,52
-1932,97	10817,37
-1930,06	14470,95
-1927,15	11401,04
-1924,25	8003,46
-1921,34	9353,07
-1918,44	19932,88
-1915,54	9645,93
-1912,63	12265,28
-1909,73	6465,44
-1906,83	10762,08
-1903,94	13383,48
-1901,04	8372,10
-1898,14	7276,43
-1895,25	12164,93
-1892,36	24137,36
-1889,46	8853,37
-1886,57	10448,74
-1883,68	8441,73
-1880,79	7870,34
-1877,91	7042,96
-1875,02	8273,79
-1872,13	6666,14
-1869,25	8357,76
-1866,37	7909,26
-1863,48	6780,82
-1860,60	9164,66
-1857,72	17125,11
-1854,84	11478,86
-1851,97	13772,59
-1849,09	7604,11
-1846,22	5941,16
-1843,34	9910,12
-1840,47	8523,65
-1837,60	12496,71
-1834,73	6705,05
-1831,86	8296,32
-1828,99	9191,28
-1826,12	10688,35
-1823,26	16928,51
-1820,39	9742,19
-1817,53	19529,43
-1814,67	9590,64
-1811,80	12955,45
-1808,94	8755,07
-1806,08	8136,58
-1803,23	12664,64
-1800,37	13639,47
-1797,51	10418,02
-1794,66	7458,70
-1791,81	13240,12
-1788,95	10856,28
-1786,10	7507,85
-1783,25	6137,76
-1780,40	5578,67
-1777,56	35474,91
-1774,71	8501,12
-1771,86	8400,77
-1769,02	11646,80
-1766,18	7460,75
-1763,33	11050,84
-1760,49	5922,73
-1757,65	11913,03
-1754,81	9215,86
-1751,98	10039,14
-1749,14	11118,42
-1746,30	10536,80
-1743,47	12490,56
-1740,64	8931,19
-1737,81	10430,30
-1734,97	11571,02
-1732,14	12162,89
-1729,32	7563,15
-1726,49	7729,03
-1723,66	10901,34
-1720,84	9512,81
-1718,01	15445,78
-1715,19	10082,15
-1712,37	10637,15
-1709,55	8705,92
-1706,73	13002,55
-1703,91	6860,70
-1701,09	9682,80
-1698,27	6700,95
-1695,46	11419,47
-1692,65	7985,03
-1689,83	9195,38
-1687,02	7151,51
-1684,21	10084,20
-1681,40	6242,21
-1678,59	8531,84
-1675,78	11237,20
-1672,98	20569,80
-1670,17	13109,05
-1667,37	14278,44
-1664,56	8925,05
-1661,76	7827,34
-1658,96	8933,24
-1656,16	9156,47
-1653,36	11544,40
-1650,57	13266,74
-1647,77	10698,59
-1644,97	12658,49
-1642,18	11820,88
-1639,39	6424,48
-1636,60	9348,98
-1633,80	6809,50
-1631,01	7765,90
-1628,23	10301,28
-1625,44	8066,95
-1622,65	15146,78
-1619,87	8064,90
-1617,08	12611,39
-1614,30	7557,00
-1611,52	12302,15
-1608,74	7862,15
-1605,96	6989,72
-1603,18	14438,18
-1600,40	8646,52
-1597,62	10753,88
-1594,85	11661,13
-1592,07	10121,06
-1589,30	8300,42
-1586,53	8679,29
-1583,76	13707,05
-1580,99	7389,07
-1578,22	11003,74
-1575,45	12275,52
-1572,68	11364,18
-1569,92	5826,47
-1567,15	9078,65
-1564,39	9516,91
-1561,63	14206,76
-1558,86	8185,73
-1556,10	7434,13
-1553,34	13590,32
-1550,59	6274,98
-1547,83	7301,01
-1545,07	7301,01
-1542,32	10772,32
-1539,56	11824,97
-1536,81	6573,98
-1534,06	7481,23
-1531,31	5617,58
-1528,56	12425,03
-1525,81	8118,15
-1523,06	8796,03
-1520,32	32454,16
-1517,57	8591,23
-1514,83	6930,33
-1512,09	7581,58
-1509,34	8796,03
-1506,60	6752,15
-1503,86	6109,09
-1501,12	11736,91
-1498,39	8841,08
-1495,65	9516,91
-1492,91	5980,07
-1490,18	7313,30
-1487,45	8583,04
-1484,71	6449,05
-1481,98	9760,62
-1479,25	5224,37
-1476,52	8742,78
-1473,80	8757,11
-1471,07	7722,89
-1468,34	12556,10
-1465,62	7569,29
-1462,89	5613,48
-1460,17	24737,41
-1457,45	9981,80
-1454,73	7759,75
-1452,01	12185,41
-1449,29	11743,05
-1446,57	11222,87
-1443,86	7925,64
-1441,14	7690,12
-1438,43	7219,09
-1435,71	12513,09
-1433,00	5279,66
-1430,29	7137,17
-1427,58	11423,57
-1424,87	9052,02
-1422,16	12515,14
-1419,46	8863,61
-1416,75	8664,96
-1414,05	7401,36
-1411,34	8834,94
-1408,64	9400,18
-1405,94	8988,53
-1403,24	9105,27
-1400,54	10585,95
-1397,84	11953,99
-1395,14	6004,64
-1392,45	8464,25
-1389,75	11851,60
-1387,06	8753,02
-1384,36	14837,53
-1381,67	6481,82
-1378,98	13203,25
-1376,29	6041,51
-1373,60	7315,34
-1370,91	5859,24
-1368,23	9123,70
-1365,54	13434,68
-1362,86	6758,30
-1360,17	8886,14
-1357,49	11120,47
-1354,81	9314,16
-1352,13	9222,00
-1349,45	7067,54
-1346,77	10514,27
-1344,09	11937,61
-1341,42	7825,29
-1338,74	10276,71
-1336,07	12308,29
-1333,39	14262,05
-1330,72	6389,66
-1328,05	7690,12
-1325,38	8974,20
-1322,71	7315,34
-1320,04	11657,04
-1317,37	7090,07
-1314,71	6119,33
-1312,04	8345,47
-1309,38	11913,03
-1306,72	7358,35
-1304,05	9703,28
-1301,39	12420,93
-1298,73	7600,01
-1296,08	5926,82
-1293,42	12412,74
-1290,76	8574,85
-1288,10	7714,70
-1285,45	10088,29
-1282,80	7128,98
-1280,14	8583,04
-1277,49	5803,94
-1274,84	6639,51
-1272,19	8576,89
-1269,54	12158,79
-1266,90	9834,35
-1264,25	7905,16
-1261,60	6059,94
-1258,96	10501,98
-1256,32	6870,94
-1253,67	16373,51
-1251,03	8304,51
-1248,39	10282,85
-1245,75	7686,03
-1243,11	9803,63
-1240,48	7774,09
-1237,84	7905,16
-1235,20	7843,72
-1232,57	5644,20
-1229,94	12605,25
-1227,31	6649,75
-1224,67	6743,96
-1222,04	5769,13
-1219,41	12021,58
-1216,79	10295,14
-1214,16	14071,59
-1211,53	9269,11
-1208,91	7311,25
-1206,28	7577,48
-1203,66	9467,76
-1201,04	9406,32
-1198,42	7567,24
-1195,80	9473,90
-1193,18	7507,85
-1190,56	5953,45
-1187,94	11398,99
-1185,33	11747,15
-1182,71	6789,02
-1180,10	14858,01
-1177,49	8642,43
-1174,87	10907,48
-1172,26	5750,70
-1169,65	8081,28
-1167,04	6082,47
-1164,44	6205,35
-1161,83	5742,50
-1159,22	7456,65
-1156,62	10790,75
-1154,01	9215,86
-1151,41	8392,58
-1148,81	4677,56
-1146,21	7362,45
-1143,61	12580,67
-1141,01	5607,34
-1138,41	9164,66
-1135,81	11693,90
-1133,22	9330,55
-1130,62	7745,42
-1128,03	9729,90
-1125,44	5943,21
-1122,84	10233,70
-1120,25	6948,76
-1117,66	16441,09
-1115,07	8845,18
-1112,49	8843,13
-1109,90	6240,16
-1107,31	7083,92
-1104,73	25491,07
-1102,14	9967,46
-1099,56	6123,43
-1096,98	6008,74
-1094,40	11241,30
-1091,82	15359,77
-1089,24	11419,47
-1086,66	5955,49
-1084,08	8771,45
-1081,51	8525,69
-1078,93	10741,60
-1076,36	5578,67
-1073,79	10731,36
-1071,21	5846,95
-1068,64	7337,87
-1066,07	13367,09
-1063,50	9613,17
-1060,93	6901,65
-1058,37	10147,69
-1055,80	8374,14
-1053,24	5988,26
-1050,67	8152,96
-1048,11	8212,35
-1045,55	6703,00
-1042,99	9109,36
-1040,42	11312,98
-1037,87	6148,00
-1035,31	10553,18
-1032,75	6227,87
-1030,19	7468,94
-1027,64	6870,94
-1025,08	5738,41
-1022,53	7090,07
-1019,98	10354,53
-1017,43	7120,79
-1014,88	9422,70
-1012,33	7120,79
-1009,78	7612,30
-1007,23	11845,45
-1004,68	15378,20
-1002,14	6805,40
-999,59	11708,24
-997,05	9639,79
-994,51	6602,65
-991,96	5175,22
-989,42	10243,94
-986,88	5552,04
-984,34	8144,77
-981,81	7368,59
-979,27	7481,23
-976,73	11829,07
-974,20	5949,35
-971,66	10620,77
-969,13	8951,67
-966,60	7192,47
-964,07	5636,01
-961,54	9187,19
-959,01	12566,34
-956,48	9293,68
-953,95	5525,42
-951,43	10211,17
-948,90	7141,27
-946,38	6395,81
-943,85	7126,93
-941,33	6985,62
-938,81	8988,53
-936,29	10180,45
-933,77	8935,29
-931,25	7757,71
-928,73	5328,81
-926,22	6727,58
-923,70	11401,04
-921,19	11212,63
-918,67	13438,77
-916,16	7587,72
-913,65	11040,60
-911,14	13096,76
-908,63	6799,26
-906,12	6418,33
-903,61	11413,33
-901,10	6225,83
-898,59	10043,24
-896,09	6696,86
-893,59	17467,13
-891,08	9774,95
-888,58	9066,36
-886,08	12398,40
-883,58	7817,10
-881,08	10026,86
-878,58	8568,70
-876,08	8843,13
-873,58	8527,74
-871,09	8212,35
-868,59	10786,65
-866,10	6109,09
-863,61	5334,96
-861,12	9426,80
-858,62	7597,96
-856,13	10311,52
-853,64	7526,29
-851,16	8753,02
-848,67	5095,35
-846,18	7296,91
-843,70	7743,37
-841,21	6850,46
-838,73	6391,71
-836,25	7819,14
-833,77	5453,74
-831,28	6342,56
-828,81	15347,48
-826,33	5814,18
-823,85	6127,52
-821,37	6717,34
-818,90	7862,15
-816,42	7864,20
-813,95	6125,47
-811,47	5984,16
-809,00	9310,07
-806,53	8671,10
-804,06	8578,94
-801,59	8357,76
-799,12	10172,26
-796,65	8925,05
-794,19	8634,24
-791,72	9371,51
-789,26	5816,23
-786,79	6178,72
-784,33	12967,74
-781,87	8241,03
-779,41	11216,72
-776,95	10731,36
-774,49	6031,27
-772,03	11233,11
-769,57	6991,77
-767,12	6651,80
-764,66	9402,22
-762,21	13672,24
-759,75	12924,73
-757,30	6223,78
-754,85	8599,42
-752,40	10815,32
-749,95	9580,40
-747,50	7849,86
-745,05	10360,67
-742,60	15970,06
-740,16	10180,45
-737,71	7827,34
-735,27	7329,68
-732,82	8802,17
-730,38	13670,19
-727,94	11351,89
-725,50	8980,34
-723,06	5627,82
-720,62	7841,67
-718,18	5924,77
-715,74	6616,99
-713,31	8136,58
-710,87	8398,72
-708,44	9793,39
-706,01	7290,77
-703,57	11308,88
-701,14	9389,94
-698,71	5109,68
-696,28	10114,92
-693,85	9731,95
-691,42	9105,27
-689,00	13565,74
-686,57	9013,11
-684,15	5345,20
-681,72	12447,55
-679,30	6510,49
-676,88	8486,78
-674,45	8200,07
-672,03	9031,54
-669,61	7098,26
-667,20	10567,52
-664,78	9129,84
-662,36	12783,42
-659,94	7495,57
-657,53	7784,33
-655,12	5031,86
-652,70	8138,63
-650,29	7982,98
-647,88	17223,42
-645,47	5693,35
-643,06	13094,71
-640,65	4399,04
-638,24	10817,37
-635,83	7772,04
-633,43	12312,39
-631,02	5994,40
-628,62	8331,14
-626,22	6944,66
-623,81	11704,14
-621,41	9088,89
-619,01	7972,74
-616,61	8839,03
-614,21	7372,69
-611,81	6133,67
-609,42	8400,77
-607,02	15150,87
-604,63	6186,91
-602,23	7126,93
-599,84	6500,25
-597,45	5681,07
-595,05	13848,36
-592,66	12130,12
-590,27	11030,36
-587,88	7374,74
-585,50	7970,69
-583,11	6776,73
-580,72	6627,23
-578,34	10583,90
-575,95	6965,14
-573,57	5617,58
-571,19	7423,89
-568,80	7563,15
-566,42	11302,74
-564,04	14731,04
-561,66	6963,09
-559,29	5625,77
-556,91	10047,33
-554,53	5947,30
-552,16	11718,48
-549,78	9631,60
-547,41	5009,33
-545,03	10583,90
-542,66	5244,85
-540,29	8214,40
-537,92	10749,79
-535,55	6180,77
-533,18	13066,04
-530,81	6928,28
-528,45	8208,26
-526,08	9602,93
-523,72	9889,64
-521,35	7221,14
-518,99	10389,35
-516,63	4841,40
-514,27	5724,07
-511,90	6897,56
-509,54	7382,93
-507,19	11024,22
-504,83	12838,72
-502,47	8314,75
-500,11	14892,83
-497,76	14153,51
-495,40	7501,71
-493,05	9365,36
-490,70	8679,29
-488,35	4415,42
-486,00	10139,49
-483,65	8898,42
-481,30	9238,39
-478,95	6846,36
-476,60	9475,95
-474,25	9193,33
-471,91	5814,18
-469,56	6512,54
-467,22	9138,04
-464,88	13510,45
-462,53	7212,95
-460,19	9217,91
-457,85	13590,32
-455,51	8228,74
-453,17	10796,89
-450,84	11847,50
-448,50	11550,54
-446,16	6946,71
-443,83	12363,59
-441,49	5892,01
-439,16	10377,06
-436,83	7540,62
-434,50	9613,17
-432,16	11276,12
-429,83	9101,17
-427,50	8812,41
-425,18	8847,22
-422,85	11978,57
-420,52	6459,29
-418,20	9887,59
-415,87	5339,05
-413,55	13989,67
-411,22	9146,23
-408,90	9281,39
-406,58	9955,18
-404,26	16166,67
-401,94	15802,13
-399,62	9072,50
-397,30	7135,12
-394,99	6977,43
-392,67	8738,68
-390,35	10899,29
-388,04	5681,07
-385,73	7372,69
-383,41	7231,38
-381,10	9119,60
-378,79	6449,05
-376,48	4663,22
-374,17	6616,99
-371,86	7331,73
-369,55	8136,58
-367,25	9793,39
-364,94	5242,80
-362,64	6414,24
-360,33	5451,69
-358,03	6031,27
-355,73	7221,14
-353,42	8531,84
-351,12	11644,75
-348,82	11489,10
-346,52	8943,48
-344,23	16099,08
-341,93	12736,32
-339,63	8056,71
-337,34	12773,18
-335,04	8173,44
-332,75	6666,14
-330,45	12420,93
-328,16	5900,20
-325,87	6389,66
-323,58	14399,27
-321,29	11485,01
-319,00	5388,21
-316,71	11671,37
-314,42	7319,44
-312,14	5130,16
-309,85	4274,11
-307,57	9674,60
-305,28	6219,68
-303,00	8355,71
-300,72	6158,24
-298,44	6348,70
-296,16	15472,40
-293,88	10751,84
-291,60	11720,53
-289,32	8494,97
-287,04	19511,00
-284,77	5136,31
-282,49	7024,53
-280,22	9318,26
-277,94	11517,78
-275,67	4067,27
-273,40	10233,70
-271,13	7282,58
-268,85	6254,50
-266,59	6842,26
-264,32	5058,48
-262,05	6801,30
-259,78	7237,52
-257,51	5281,71
-255,25	8892,28
-252,98	5175,22
-250,72	5541,80
-248,46	7827,34
-246,20	5349,29
-243,93	7739,27
-241,67	8861,56
-239,41	4370,37
-237,16	7729,03
-234,90	5814,18
-232,64	5054,39
-230,38	6328,22
-228,13	10919,77
-225,87	6551,45
-223,62	11325,27
-221,37	8140,68
-219,11	4773,82
-216,86	6879,13
-214,61	6561,69
-212,36	7436,17
-210,11	7444,37
-207,87	6201,25
-205,62	6756,25
-203,37	7718,79
-201,13	8167,30
-198,88	4958,13
-196,64	13977,39
-194,39	6299,55
-192,15	9338,74
-189,91	9906,02
-187,67	10823,51
-185,43	18792,16
-183,19	11929,42
-180,95	6422,43
-178,72	6018,98
-176,48	8976,25
-174,24	7430,03
-172,01	9348,98
-169,77	15875,85
-167,54	8535,93
-165,31	3841,99
-163,08	4792,25
-160,85	8310,66
-158,62	6274,98
-156,39	9402,22
-154,16	7958,41
-151,93	7968,65
-149,70	8875,90
-147,48	9152,37
-145,25	7978,89
-143,03	5867,43
-140,81	9756,52
-138,58	5814,18
-136,36	7376,78
-134,14	12762,94
-131,92	4222,91
-129,70	10000,23
-127,48	7557,00
-125,26	4601,79
-123,05	6150,05
-120,83	4790,20
-118,62	5476,27
-116,40	6694,81
-114,19	7845,77
-111,97	7708,55
-109,76	6027,17
-107,55	15877,90
-105,34	5031,86
-103,13	6664,09
-100,92	6049,70
-98,71	7298,96
-96,51	11284,31
-94,30	7626,64
-92,09	6186,91
-89,89	9209,72
-87,69	5580,71
-85,48	15144,73
-83,28	4607,93
-81,08	5515,18
-78,88	6358,94
-76,68	8587,13
-74,48	9635,69
-72,28	8470,40
-70,08	4714,42
-67,88	7503,76
-65,69	6416,29
-63,49	6533,02
-61,30	9756,52
-59,11	5287,86
-56,91	8757,11
-54,72	4870,07
-52,53	6510,49
-50,34	9590,64
-48,15	10426,21
-45,96	7813,00
-43,77	6270,88
-41,59	7962,50
-39,40	6842,26
-37,21	9600,88
-35,03	5654,44
-32,84	7315,34
-30,66	7528,33
-28,48	4808,63
-26,30	8951,67
-24,12	10119,01
-21,94	6191,01
-19,76	6565,79
-17,58	10592,09
-15,40	13002,55
-13,22	14370,60
-11,05	25417,34
-8,87	25423,48
-6,70	23912,08
-4,52	27131,49
-2,35	36007,39
-0,18	26760,81
1,99	27280,99
4,16	26525,29
6,33	21696,18
8,50	19633,88
10,67	17839,86
12,84	18675,43
15,00	18568,93
17,17	15056,67
19,33	13909,80
21,50	12130,12
23,66	10071,91
25,83	8916,86
27,99	13072,18
30,15	9121,65
32,31	9834,35
34,47	8056,71
36,63	7765,90
38,79	19314,39
40,94	8767,35
43,10	11861,84
45,25	9254,77
47,41	7366,54
49,56	9375,60
51,72	6399,90
53,87	7860,10
56,02	13127,48
58,17	7913,35
60,32	10798,94
62,47	8062,85
64,62	14974,75
66,77	5838,76
68,92	5109,68
71,06	13649,71
73,21	8871,80
75,35	4396,99
77,50	4759,48
79,64	13459,25
81,78	7120,79
83,92	7798,66
86,06	6553,50
88,20	7671,69
90,34	5871,53
92,48	6053,80
94,62	10237,80
96,76	8734,59
98,89	7382,93
101,03	7919,50
103,16	9439,09
105,30	12492,61
107,43	8343,42
109,56	6182,82
111,69	8820,60
113,82	5171,12
115,95	7921,54
118,08	7190,42
120,21	8822,65
122,34	6240,16
124,47	8912,76
126,59	7481,23
128,72	4607,93
130,84	12171,08
132,97	13848,36
135,09	6915,99
137,21	6074,28
139,33	4118,47
141,45	10708,83
143,57	7354,26
145,69	7036,82
147,81	13008,70
149,93	8769,40
152,05	9678,70
154,16	9750,38
156,28	5926,82
158,39	6823,83
160,51	8562,56
162,62	6625,18
164,73	10868,57
166,85	13168,44
168,96	7137,17
171,07	7165,84
173,18	11450,19
175,28	9402,22
177,39	8472,45
179,50	7708,55
181,61	13694,77
183,71	7800,71
185,82	6303,65
187,92	7831,43
190,02	12216,13
192,13	8826,75
194,23	11951,95
196,33	8826,75
198,43	11716,43
200,53	5463,98
202,63	11577,17
204,72	6582,17
206,82	4943,80
208,92	8587,13
211,01	4982,71
213,11	9512,81
215,20	5111,73
217,30	8626,04
219,39	18093,80
221,48	10245,99
223,57	7454,61
225,66	9961,32
227,75	7571,34
229,84	6051,75
231,93	5046,20
234,02	7460,75
236,10	5359,53
238,19	8664,96
240,28	14073,64
242,36	6289,31
244,44	9066,36
246,53	10080,10
248,61	5871,53
250,69	10868,57
252,77	5830,57
254,85	4155,33
256,93	12080,97
259,01	9348,98
261,09	7694,22
263,16	5162,93
265,24	11642,70
267,32	8683,39
269,39	7282,58
271,46	7669,64
273,54	10803,04
275,61	13219,64
277,68	9834,35
279,75	10712,92
281,82	8847,22
283,89	8437,63
285,96	7935,88
288,03	8908,66
290,10	6528,92
292,16	7759,75
294,23	12685,12
296,29	8769,40
298,36	13934,38
300,42	8177,54
302,49	8208,26
304,55	8327,04
306,61	7790,47
308,67	7978,89
310,73	8077,19
312,79	9521,01
314,85	16033,55
316,90	9676,65
318,96	8877,94
321,02	7896,97
323,07	9224,05
325,13	9037,69
327,18	7909,26
329,24	5326,77
331,29	7110,55
333,34	7503,76
335,39	7536,53
337,44	8804,22
339,49	10270,56
341,54	7004,05
343,59	7585,68
345,64	9416,56
347,68	5533,61
349,73	8697,72
351,77	10610,53
353,82	9117,56
355,86	8214,40
357,90	6434,72
359,95	13334,32
361,99	5715,88
364,03	9506,67
366,07	10139,49
368,11	7098,26
370,15	7159,70
372,19	7647,12
374,22	11054,94
376,26	10182,50
378,29	6141,86
380,33	6633,37
382,36	8972,15
384,40	7739,27
386,43	28374,61
388,46	14685,98
390,49	12412,74
392,52	9992,04
394,55	12042,06
396,58	9305,97
398,61	9965,42
400,64	6352,80
402,67	8908,66
404,69	11556,69
406,72	13086,52
408,74	11581,26
410,77	7772,04
412,79	10188,64
414,81	10071,91
416,84	12050,25
418,86	7526,29
420,88	11626,32
422,90	7651,21
424,92	10018,66
426,94	10420,06
428,95	9967,46
430,97	12209,99
432,99	12064,58
435,00	8218,50
437,02	7122,84
439,03	9813,87
441,04	11206,48
443,06	6549,40
445,07	11003,74
447,08	10983,26
449,09	7534,48
451,10	6457,25
453,11	7272,34
455,12	15316,76
457,13	8288,13
459,13	6418,33
461,14	12324,68
463,14	11237,20
465,15	5431,21
467,15	12889,92
469,16	8257,41
471,16	12281,67
473,16	12425,03
475,16	10415,97
477,16	5832,62
479,16	10878,81
481,16	8603,52
483,16	7683,98
485,16	8302,47
487,15	9844,59
489,15	6932,37
491,15	6889,37
493,14	6647,71
495,14	9455,47
497,13	9944,94
499,12	12773,18
501,11	11550,54
503,11	10192,74
505,10	9701,23
507,09	7634,83
509,07	8390,53
511,06	7008,15
513,05	8595,32
515,04	7407,50
517,02	7757,71
519,01	8767,35
521,00	7454,61
522,98	7890,82
524,96	5885,86
526,95	8763,26
528,93	7528,33
530,91	5380,01
532,89	5941,16
534,87	9394,03
536,85	7141,27
538,83	10121,06
540,81	9422,70
542,78	6152,10
544,76	11030,36
546,74	8097,67
548,71	10518,37
550,69	8839,03
552,66	9666,41
554,63	6641,56
556,60	8148,87
558,58	6852,50
560,55	7948,17
562,52	7364,50
564,49	7190,42
566,46	10772,32
568,42	10991,45
570,39	8437,63
572,36	6862,74
574,32	10299,23
576,29	6231,97
578,25	9979,75
580,22	5574,57
582,18	6612,89
584,14	11734,86
586,11	6657,95
588,07	7714,70
590,03	7767,95
591,99	6809,50
593,95	4851,64
595,90	9293,68
597,86	7038,87
599,82	9963,37
601,78	8912,76
603,73	9527,15
605,69	6731,67
607,64	7198,61
609,59	6850,46
611,55	5734,31
613,50	12398,40
615,45	6885,27
617,40	13993,77
619,35	6692,76
621,30	8386,43
623,25	11607,89
625,20	6498,20
627,15	6385,57
629,09	8454,02
631,04	8654,72
632,98	12085,06
634,93	7518,09
636,87	10028,90
638,82	9033,59
640,76	6809,50
642,70	7196,56
644,64	10667,87
646,58	11659,09
648,52	8644,48
650,46	5439,40
652,40	5572,52
654,34	6211,49
656,27	6969,24
658,21	5255,09
660,15	8474,49
662,08	7622,54
664,02	9475,95
665,95	10723,16
667,88	9785,19
669,82	10223,46
671,75	10424,16
673,68	7266,19
675,61	9367,41
677,54	4954,04
679,47	9269,11
681,40	7716,75
683,32	6748,06
685,25	11388,75
687,18	7483,28
689,10	9242,48
691,03	11095,89
692,95	5357,49
694,87	11482,96
696,80	9449,33
698,72	11786,06
700,64	7821,19
702,56	7821,19
704,48	9310,07
706,40	6889,37
708,32	7309,20
710,24	8515,45
712,16	9713,52
714,07	8882,04
715,99	6494,11
717,90	7679,88
719,82	10762,08
721,73	9242,48
723,65	5181,36
725,56	6371,23
727,47	7667,59
729,38	7597,96
731,29	9604,97
733,20	6786,97
735,11	7090,07
737,02	6662,04
738,93	5611,43
740,84	7747,47
742,74	7159,70
744,65	7792,52
746,55	8183,68
748,46	10786,65
750,36	9146,23
752,27	12449,60
754,17	8624,00
756,07	9086,84
757,97	9893,74
759,87	6188,96
761,77	6559,64
763,67	9205,62
765,57	8251,27
767,47	13330,23
769,37	6684,57
771,26	13115,19
773,16	9029,49
775,06	11099,99
776,95	9729,90
778,84	9740,14
780,74	4644,79
782,63	6619,04
784,52	7491,47
786,41	13209,40
788,30	14239,53
790,19	5205,94
792,08	6913,94
793,97	16420,61
795,86	5865,38
797,75	7159,70
799,63	7460,75
801,52	8195,97
803,41	5990,31
805,29	6940,57
807,18	5644,20
809,06	8116,10
810,94	8533,89
812,82	14839,58
814,70	7958,41
816,59	8867,70
818,47	6262,69
820,35	9543,53
822,22	10887,00
824,10	11499,34
825,98	9660,27
827,86	10993,50
829,73	9076,60
831,61	4712,38
833,48	7366,54
835,36	7761,80
837,23	10743,64
839,10	6139,81
840,98	9766,76
842,85	10028,90
844,72	8001,41
846,59	7403,41
848,46	12435,27
850,33	11196,25
852,20	8060,80
854,06	13360,95
855,93	8775,55
857,80	11747,15
859,66	15365,91
861,53	8490,88
863,39	10063,72
865,26	10649,44
867,12	16291,59
868,98	15630,10
870,84	12638,02
872,71	14999,32
874,57	17067,77
876,43	18482,92
878,29	17800,94
880,14	16092,94
882,00	18231,02
883,86	18405,10
885,72	18761,44
887,57	17184,51
889,43	16158,47
891,28	13498,16
893,14	12975,93
894,99	12758,85
896,84	13055,80
898,69	10585,95
900,55	10268,52
902,40	12355,40
904,25	11716,43
906,10	5859,24
907,95	11018,07
909,79	10772,32
911,64	7018,39
913,49	8976,25
915,34	6178,72
917,18	8036,23
919,03	7978,89
920,87	7847,82
922,71	7278,48
924,56	8204,16
926,40	11534,16
928,24	8755,07
930,08	8535,93
931,92	5359,53
933,76	10753,88
935,60	10010,47
937,44	16731,90
939,28	9006,97
941,12	12404,55
942,95	7167,89
944,79	11757,39
946,62	7735,18
948,46	5326,77
950,29	9052,02
952,13	8380,29
953,96	10317,67
955,79	11659,09
957,62	5914,53
959,46	12642,11
961,29	5496,75
963,12	9131,89
964,94	8437,63
966,77	12222,28
968,60	7944,07
970,43	9508,72
972,25	11771,72
974,08	5730,22
975,91	8761,21
977,73	11806,54
979,55	9545,58
981,38	8185,73
983,20	9467,76
985,02	7843,72
986,84	7399,31
988,66	9076,60
990,49	9996,14
992,30	7520,14
994,12	7153,55
995,94	7763,85
997,76	11923,27
999,58	6987,67
1001,39	6197,15
1003,21	6967,19
1005,02	5767,08
1006,84	6260,64
1008,65	7059,35
1010,47	12705,60
1012,28	5547,95
1014,09	10491,74
1015,90	9129,84
1017,71	6684,57
1019,52	10628,96
1021,33	7466,89
1023,14	5844,90
1024,95	5326,77
1026,76	10878,81
1028,56	9568,11
1030,37	7806,86
1032,18	7731,08
1033,98	11585,36
1035,79	8236,93
1037,59	10583,90
1039,39	8179,59
1041,20	14198,57
1043,00	10903,39
1044,80	9295,73
1046,60	13066,04
1048,40	13137,72
1050,20	9113,46
1052,00	7034,77
1053,80	13111,10
1055,59	9701,23
1057,39	10381,15
1059,19	7270,29
1060,98	12429,12
1062,78	8968,06
1064,57	7075,73
1066,37	7847,82
1068,16	7413,65
1069,95	12607,30
1071,75	9719,66
1073,54	7583,63
1075,33	10878,81
1077,12	9895,78
1078,91	12463,94
1080,70	17649,39
1082,48	10889,05
1084,27	10872,67
1086,06	14569,25
1087,85	8951,67
1089,63	11280,21
1091,42	15054,62
1093,20	13799,21
1094,99	8335,23
1096,77	9232,24
1098,55	10266,47
1100,33	8427,39
1102,12	9117,56
1103,90	9961,32
1105,68	8728,44
1107,46	16500,48
1109,24	9391,98
1111,01	8970,10
1112,79	10772,32
1114,57	9971,56
1116,35	8300,42
1118,12	8107,91
1119,90	10981,21
1121,67	9451,38
1123,45	9437,04
1125,22	7927,69
1126,99	10440,54
1128,77	9701,23
1130,54	6901,65
1132,31	7896,97
1134,08	12945,21
1135,85	14243,62
1137,62	7366,54
1139,39	8576,89
1141,15	14493,47
1142,92	10190,69
1144,69	5830,57
1146,46	7309,20
1148,22	5148,59
1149,99	10618,72
1151,75	5554,09
1153,51	6672,28
1155,28	9353,07
1157,04	10624,86
1158,80	7767,95
1160,56	7767,95
1162,32	7989,13
1164,08	6197,15
1165,84	8783,74
1167,60	5246,90
1169,36	7925,64
1171,12	5265,33
1172,88	7796,62
1174,63	6954,90
1176,39	13309,75
1178,14	9097,08
1179,90	7208,85
1181,65	11171,67
1183,41	7688,07
1185,16	6928,28
1186,91	7321,49
1188,66	7249,81
1190,41	9541,49
1192,16	7104,40
1193,91	5771,18
1195,66	7366,54
1197,41	7970,69
1199,16	6746,01
1200,91	7387,02
1202,66	10800,99
1204,40	8419,20
1206,15	6358,94
1207,89	5150,64
1209,64	8693,63
1211,38	5599,15
1213,12	6991,77
1214,87	30408,24
1216,61	7870,34
1218,35	9791,34
1220,09	8863,61
1221,83	5302,19
1223,57	8630,14
1225,31	8836,99
1227,05	10563,42
1228,79	6754,20
1230,52	5429,17
1232,26	7303,06
1234,00	14303,01
1235,73	5023,67
1237,47	5470,12
1239,20	5631,91
1240,94	7569,29
1242,67	14339,88
1244,40	6666,14
1246,13	7548,81
1247,86	9736,04
1249,60	4669,37
1251,33	9248,63
1253,06	10407,78
1254,78	5867,43
1256,51	14980,89
1258,24	10418,02
1259,97	7862,15
1261,69	8734,59
1263,42	9330,55
1265,15	7243,67
1266,87	10508,13
1268,59	7018,39
1270,32	11134,81
1272,04	7823,24
1273,76	10327,91
1275,49	8286,08
1277,21	5629,87
1278,93	8523,65
1280,65	6156,19
1282,37	13119,29
1284,09	5187,50
1285,81	8634,24
1287,52	10643,29
1289,24	7606,16
1290,96	5586,86
1292,67	6320,03
1294,39	11368,27
1296,10	5668,78
1297,82	7702,41
1299,53	6121,38
1301,24	6385,57
1302,96	8034,18
1304,67	7489,42
1306,38	9912,17
1308,09	6963,09
1309,80	6023,08
1311,51	8152,96
1313,22	7585,68
1314,93	8611,71
1316,64	10452,83
1318,34	5769,13
1320,05	9660,27
1321,75	11016,02
1323,46	7002,01
1325,17	4552,63
1326,87	12236,61
1328,57	9521,01
1330,28	7100,31
1331,98	4569,02
1333,68	6365,09
1335,38	10282,85
1337,08	7868,30
1338,78	14741,28
1340,48	6678,43
1342,18	13954,86
1343,88	8863,61
1345,58	10291,04
1347,28	4638,65
1348,97	13258,55
1350,67	5431,21
1352,36	6625,18
1354,06	11865,93
1355,75	8660,86
1357,45	10780,51
1359,14	5033,91
1360,83	5951,40
1362,53	7323,54
1364,22	6219,68
1365,91	4532,15
1367,60	9641,84
1369,29	11650,89
1370,98	8773,50
1372,67	6623,13
1374,35	11650,89
1376,04	11786,06
1377,73	13516,59
1379,41	19132,12
1381,10	7620,49
1382,79	20715,20
1384,47	6322,08
1386,15	8986,49
1387,84	7567,24
1389,52	11765,58
1391,20	7937,93
1392,88	11097,94
1394,57	6696,86
1396,25	7198,61
1397,93	9580,40
1399,61	9963,37
1401,28	5332,91
1402,96	7483,28
1404,64	7462,80
1406,32	7991,17
1407,99	6141,86
1409,67	9265,01
1411,35	9488,24
1413,02	7649,16
1414,70	8052,61
1416,37	9291,63
1418,04	10725,21
1419,71	9156,47
1421,39	6686,62
1423,06	10528,61
1424,73	13227,83
1426,40	12042,06
1428,07	9398,13
1429,74	11743,05
1431,41	7114,64
1433,08	14030,63
1434,74	7229,33
1436,41	10233,70
1438,08	8421,25
1439,74	8650,62
1441,41	9670,51
1443,07	7565,20
1444,74	7456,65
1446,40	13057,85
1448,06	8896,38
1449,72	11075,42
1451,39	10651,49
1453,05	11554,64
1454,71	13477,68
1456,37	9258,87
1458,03	15335,19
1459,69	9527,15
1461,35	15748,88
1463,00	14401,32
1464,66	9056,12
1466,32	9414,51
1467,97	8300,42
1469,63	10880,86
1471,28	11083,61
1472,94	8863,61
1474,59	15081,24
1476,25	6240,16
1477,90	11468,62
1479,55	13281,08
1481,20	7778,19
1482,85	10375,01
1484,50	8869,75
1486,15	12367,68
1487,80	15245,08
1489,45	8994,68
1491,10	6123,43
1492,75	7784,33
1494,40	6215,59
1496,04	6993,81
1497,69	11581,26
1499,33	7247,76
1500,98	17917,68
1502,62	10153,83
1504,27	11741,00
1505,91	10170,21
1507,55	8531,84
1509,19	8959,86
1510,84	6358,94
1512,48	8292,23
1514,12	5799,85
1515,76	7323,54
1517,40	5361,58
1519,04	8183,68
1520,67	12390,21
1522,31	9140,08
1523,95	10229,60
1525,59	10733,40
1527,22	6471,58
1528,86	10059,62
1530,49	8228,74
1532,13	7774,09
1533,76	12441,41
1535,39	14298,92
1537,03	16365,32
1538,66	4710,33
1540,29	9074,55
1541,92	7440,27
1543,55	9715,56
1545,18	4804,53
1546,81	8171,40
1548,44	7337,87
1550,07	7139,22
1551,70	8398,72
1553,32	4900,79
1554,95	10360,67
1556,58	9076,60
1558,20	13674,29
1559,83	11919,18
1561,45	9557,87
1563,07	7069,59
1564,70	8464,25
1566,32	9815,91
1567,94	7557,00
1569,56	8419,20
1571,19	11134,81
1572,81	9047,93
1574,43	9545,58
1576,05	10426,21
1577,66	9783,15
1579,28	6832,02
1580,90	10172,26
1582,52	42020,22
1584,14	5197,74
1585,75	5492,65
1587,37	6965,14
1588,98	9668,46
1590,60	7774,09
1592,21	5775,27
1593,82	10391,39
1595,44	9088,89
1597,05	10321,76
1598,66	8400,77
1600,27	15812,37
1601,88	8492,93
1603,49	40080,80
1605,10	6547,36
1606,71	7722,89
1608,32	6072,23
1609,93	6832,02
1611,54	4356,03
1613,14	11143,00
1614,75	7546,76
1616,36	7133,08
1617,96	8376,19
1619,57	5205,94
1621,17	8148,87
1622,77	12431,17
1624,38	5787,56
1625,98	8415,10
1627,58	8595,32
1629,18	16463,62
1630,78	5717,93
1632,38	14151,46
1633,98	8271,75
1635,58	6299,55
1637,18	5447,60
1638,78	10293,09
1640,38	6895,51
1641,98	14982,94
1643,57	11292,50
1645,17	5367,73
1646,76	6082,47
1648,36	10925,91
1649,95	8669,05
1651,55	8351,62
1653,14	9779,05
1654,73	9121,65
1656,33	9045,88
1657,92	8814,46
1659,51	8992,63
1661,10	9408,37
1662,69	6018,98
1664,28	10567,52
1665,87	8365,95
1667,46	5042,10
1669,05	14458,66
1670,63	9295,73
1672,22	11190,10
1673,81	9222,00
1675,39	9635,69
1676,98	6385,57
1678,56	9549,68
1680,15	8361,86
1681,73	4884,41
1683,31	12951,35
1684,90	10622,81
1686,48	9144,18
1688,06	9703,28
1689,64	13178,68
1691,22	10041,19
1692,80	6414,24
1694,38	10012,52
1695,96	6967,19
1697,54	12627,78
1699,12	8288,13
1700,69	9324,40
1702,27	8679,29
1703,85	8216,45
1705,42	6420,38
1707,00	4382,65
1708,57	5478,32
1710,15	8642,43
1711,72	5740,46
1713,29	6358,94
1714,87	10481,50
1716,44	8990,58
1718,01	9744,24
1719,58	6061,99
1721,15	5515,18
1722,72	8474,49
1724,29	8058,76
1725,86	5330,86
1727,43	7878,54
1729,00	5306,29
1730,56	11568,98
1732,13	13066,04
1733,70	6881,18
1735,26	7104,40
1736,83	5072,82
1738,39	6616,99
1739,96	6877,08
1741,52	9609,07
1743,08	6258,59
1744,65	6860,70
1746,21	4849,59
1747,77	7557,00
1749,33	8347,52
1750,89	9047,93
1752,45	9723,76
1754,01	8947,58
1755,57	8529,79
1757,13	4401,08
1758,69	5230,51
1760,24	7645,07
1761,80	5300,14
1763,36	10192,74
1764,91	15038,23
1766,47	5091,25
1768,02	8230,79
1769,58	8245,12
1771,13	8150,92
1772,68	9162,61
1774,24	4679,61
1775,79	5353,39
1777,34	5664,68
1778,89	9680,75
1780,44	5132,21
1781,99	5279,66
1783,54	15210,26
1785,09	7417,74
1786,64	5949,35
1788,19	7045,01
1789,73	6619,04
1791,28	11161,43
1792,83	9092,98
1794,37	5582,76
1795,92	11751,24
1797,46	6983,57
1799,01	9682,80
1800,55	7077,78
1802,09	11933,51
1803,64	5064,63
1805,18	15167,26
1806,72	11009,88
1808,26	7987,08
1809,80	11956,04
1811,34	6016,93
1812,88	6807,45
1814,42	9643,88
1815,96	6608,80
1817,50	9248,63
1819,04	6090,66
1820,57	16037,64
1822,11	8677,24
1823,65	4276,16
1825,18	4224,96
1826,72	6256,54
1828,25	6700,95
1829,78	5674,92
1831,32	7233,43
1832,85	5425,07
1834,38	14233,38
1835,92	6805,40
1837,45	5228,46
1838,98	5719,98
1840,51	7505,81
1842,04	8697,72
1843,57	8738,68
1845,10	6741,91
1846,62	9609,07
1848,15	6213,54
1849,68	10618,72
1851,21	10809,18
1852,73	10311,52
1854,26	4089,79
1855,78	7761,80
1857,31	6862,74
1858,83	9090,93
1860,36	7307,15
1861,88	7165,84
1863,40	9242,48
1864,92	9166,71
1866,45	8853,37
1867,97	9930,60
1869,49	5228,46
1871,01	11499,34
1872,53	11116,37
1874,05	7430,03
1875,57	19873,49
1877,08	8765,31
1878,60	10041,19
1880,12	8841,08
1881,64	6193,06
1883,15	12816,19
1884,67	5574,57
1886,18	7102,36
1887,70	11542,35
1889,21	8533,89
1890,72	5640,11
1892,24	4263,87
1893,75	7645,07
1895,26	9162,61
1896,77	5447,60
1898,28	4476,86
1899,79	9402,22
1901,30	6191,01
1902,81	8490,88
1904,32	10280,80
1905,83	8601,47
1907,34	7362,45
1908,85	7810,95
1910,35	7036,82
1911,86	9459,57
1913,37	7976,84
1914,87	5539,76
1916,38	5527,47
1917,88	6086,56
1919,39	6737,82
1920,89	6672,28
1922,39	10358,63
1923,89	7434,13
1925,40	6348,70
1926,90	7880,58
1928,40	6764,44
1929,90	6883,22
1931,40	10667,87
1932,90	7786,38
1934,40	6047,65
1935,90	5750,70
1937,39	6332,32
1938,89	11632,46
1940,39	5066,67
1941,89	6668,19
1943,38	7542,67
1944,88	15982,35
1946,37	9903,98
1947,87	7901,06
1949,36	4669,37
1950,85	5607,34
1952,35	4835,25
1953,84	8761,21
1955,33	5619,63
1956,82	6918,04
1958,31	9506,67
1959,80	6637,47
1961,29	7069,59
1962,78	8638,33
1964,27	5453,74
1965,76	8032,13
1967,25	8673,15
1968,74	10407,78
1970,22	9545,58
1971,71	6127,52
1973,20	6510,49
1974,68	4528,06
1976,17	11398,99
1977,65	8779,64
1979,14	10129,25
1980,62	7847,82
1982,10	6205,35
1983,58	8142,72
1985,07	5556,14
1986,55	6977,43
1988,03	8906,62
1989,51	15865,61
1990,99	5455,79
1992,47	7823,24
1993,95	6492,06
1995,43	9119,60
1996,91	9142,13
1998,38	9365,36
1999,86	10475,36
2001,34	8669,05
2002,81	6145,95
2004,29	12939,07
2005,76	9686,89
2007,24	7688,07
2008,71	7303,06
2010,19	8777,59
2011,66	8406,91
2013,13	11753,29
2014,60	7755,66
2016,08	8624,00
2017,55	8732,54
2019,02	7186,32
2020,49	10868,57
2021,96	4042,69
2023,43	7909,26
2024,90	6975,38
2026,36	10958,68
2027,83	8370,05
2029,30	5173,17
2030,77	10745,69
2032,23	9752,43
2033,70	7657,36
2035,16	6496,16
2036,63	5318,57
2038,09	8181,64
2039,56	5111,73
2041,02	12740,41
2042,48	7817,10
2043,95	8816,51
2045,41	5879,72
2046,87	7870,34
2048,33	6111,14
2049,79	8818,55
2051,25	4859,83
2052,71	5476,27
2054,17	6848,41
2055,63	9701,23
2057,09	7724,94
2058,54	10757,98
2060,00	7292,82
2061,46	6987,67
2062,91	9203,57
2064,37	6639,51
2065,82	8978,30
2067,28	16746,24
2068,73	6623,13
2070,19	11337,56
2071,64	15736,59
2073,09	7255,95
2074,54	10833,75
2076,00	7323,54
2077,45	8408,96
2078,90	8040,33
2080,35	7237,52
2081,80	8658,81
2083,25	6989,72
2084,70	5762,98
2086,14	8222,59
2087,59	4806,58
2089,04	7839,62
2090,49	9748,33
2091,93	10063,72
2093,38	7825,29
2094,83	4452,28
2096,27	7249,81
2097,71	9244,53
2099,16	8978,30
2100,60	8503,17
2102,05	5042,10
2103,49	7251,86
2104,93	5545,90
2106,37	10233,70
2107,81	8361,86
2109,25	8312,71
2110,69	5545,90
2112,13	9934,70
2113,57	6891,41
2115,01	8593,28
2116,45	6651,80
2117,89	12556,10
2119,33	8339,33
2120,76	11454,29
2122,20	9373,55
2123,63	14114,60
2125,07	10872,67
2126,51	5240,75
2127,94	7788,43
2129,37	6889,37
2130,81	6829,98
2132,24	9273,20
2133,67	5574,57
2135,11	11202,39
2136,54	7782,28
2137,97	7788,43
2139,40	8923,00
2140,83	11059,03
2142,26	7796,62
2143,69	8050,57
2145,12	15906,57
2146,55	6344,61
2147,97	9113,46
2149,40	7673,74
2150,83	8116,10
2152,25	13047,61
2153,68	5171,12
2155,11	13385,52
2156,53	5609,39
2157,96	8861,56
2159,38	6686,62
2160,80	6461,34
2162,23	13950,76
2163,65	8257,41
2165,07	8032,13
2166,49	8478,59
2167,91	6614,94
2169,33	8228,74
2170,75	10790,75
2172,17	10735,45
2173,59	4161,47
2175,01	6526,88
2176,43	6447,01
2177,85	8900,47
2179,27	7372,69
2180,68	6004,64
2182,10	6934,42
2183,52	4083,65
2184,93	8949,62
2186,35	10665,82
2187,76	6571,93
2189,18	11558,74
2190,59	12988,22
2192,00	8175,49
2193,42	7946,12
2194,83	11759,44
2196,24	12904,25
2197,65	18853,60
2199,06	13813,55
2200,47	5789,61
2201,88	5791,66
2203,29	5955,49
2204,70	9475,95
2206,11	8759,16
2207,52	6234,02
2208,93	7350,16
2210,33	5431,21
2211,74	13686,58
2213,15	8712,06
2214,55	8609,66
2215,96	7112,60
2217,36	8185,73
2218,77	9342,83
2220,17	4605,88
2221,57	6330,27
2222,98	10571,61
2224,38	6498,20
2225,78	10524,51
2227,18	7135,12
2228,58	6244,26
2229,99	3946,44
2231,39	7307,15
2232,79	6750,10
2234,18	5953,45
2235,58	5547,95
2236,98	6875,03
2238,38	5072,82
2239,78	5740,46
2241,17	9023,35
2242,57	9580,40
2243,97	6918,04
2245,36	6236,06
2246,76	10006,38
2248,15	8288,13
2249,55	5076,91
2250,94	10305,38
2252,33	8015,75
2253,73	9856,87
2255,12	5556,14
2256,51	6385,57
2257,90	4616,12
2259,29	11902,79
2260,68	6412,19
2262,07	5633,96
2263,46	8243,07
2264,85	14024,49
2266,24	6012,84
2267,63	11456,34
2269,02	7143,32
2270,40	6068,13
2271,79	10270,56
2273,18	6645,66
2274,56	4943,80
2275,95	16002,83
2277,33	8550,27
2278,72	8200,07
2280,10	9125,75
2281,49	7143,32
2282,87	7790,47
2284,25	7761,80
2285,63	6021,03
2287,02	7350,16
2288,40	6778,78
2289,78	8507,26
2291,16	6102,95
2292,54	7864,20
2293,92	8755,07
2295,30	8152,96
2296,68	11700,05
2298,05	8802,17
2299,43	10405,73
2300,81	5109,68
2302,19	4607,93
2303,56	10241,89
2304,94	8107,91
2306,31	5957,54
2307,69	7047,06
2309,06	11294,55
2310,44	7643,02
2311,81	9430,90
2313,19	10135,40
2314,56	13662,00
2315,93	8673,15
2317,30	5042,10
2318,67	6623,13
2320,04	8804,22
2321,41	8679,29
2322,78	5027,76
2324,15	10436,45
2325,52	6565,79
2326,89	9660,27
2328,26	9727,85
2329,63	3966,92
2331,00	6516,64
2332,36	9006,97
2333,73	4229,06
2335,09	11485,01
2336,46	8507,26
2337,83	8628,09
2339,19	4995,00
2340,55	4106,18
2341,92	7653,26
2343,28	6629,27
2344,64	5820,33
2346,01	8335,23
2347,37	14040,87
2348,73	8843,13
2350,09	5947,30
2351,45	9926,50
2352,81	6303,65
2354,17	52372,70
2355,53	4970,42
2356,89	6930,33
2358,25	4825,01
2359,61	9346,93
2360,96	13514,55
2362,32	6811,54
2363,68	6774,68
2365,03	8382,34
2366,39	14714,66
2367,74	5683,11
2369,10	9734,00
2370,45	6578,08
2371,81	6334,37
2373,16	8683,39
2374,51	6176,67
2375,86	8992,63
2377,22	8015,75
2378,57	9600,88
2379,92	5773,22
2381,27	9232,24
2382,62	3956,68
2383,97	14157,61
2385,32	8699,77
2386,67	4505,53
2388,02	6139,81
2389,37	5038,00
2390,71	9719,66
2392,06	9164,66
2393,41	6659,99
2394,75	8112,00
2396,10	13168,44
2397,44	4759,48
2398,79	9222,00
2400,13	5461,93
2401,48	5003,19
2402,82	6447,01
2404,17	5973,92
2405,51	9377,65
2406,85	6543,26
2408,19	9363,31
2409,53	10635,10
2410,87	5861,29
2412,22	11472,72
2413,56	8509,31
2414,89	7174,03
2416,23	11239,25
2417,57	6637,47
2418,91	8238,98
2420,25	11061,08
2421,59	13672,24
2422,92	7894,92
2424,26	6148,00
2425,60	16049,93
2426,93	6260,64
2428,27	7645,07
2429,60	8599,42
2430,94	5273,52
2432,27	8550,27
2433,60	8359,81
2434,94	5435,31
2436,27	6479,77
2437,60	5472,17
2438,93	9596,78
2440,27	9693,04
2441,60	6004,64
2442,93	5552,04
2444,26	12287,81
2445,59	8783,74
2446,92	8593,28
2448,24	6414,24
2449,57	8212,35
2450,90	4972,47
2452,23	8425,34
2453,55	7796,62
2454,88	9408,37
2456,21	8015,75
2457,53	8329,09
2458,86	9432,94
2460,18	6320,03
2461,51	9121,65
2462,83	5824,42
2464,15	6571,93
2465,48	7477,13
2466,80	4405,18
2468,12	11781,96
2469,44	8333,18
2470,76	9226,10
2472,09	5953,45
2473,41	14393,12
2474,73	9465,71
2476,05	8451,97
2477,36	8779,64
2478,68	7966,60
2480,00	8071,04
2481,32	10045,29
2482,64	9879,40
2483,95	5275,57
2485,27	12093,26
2486,59	6270,88
2487,90	6778,78
2489,22	6250,40
2490,53	5926,82
2491,85	10151,78
2493,16	10499,94
2494,47	8064,90
2495,79	5937,06
2497,10	10059,62
2498,41	6430,62
2499,72	7147,41
2501,03	6727,58
2502,35	10211,17
2503,66	9473,90
2504,97	8490,88
2506,28	12199,75
2507,59	5939,11
2508,89	11763,53
2510,20	5578,67
2511,51	5996,45
2512,82	13000,51
2514,12	5330,86
2515,43	5883,81
2516,74	7018,39
2518,04	9318,26
2519,35	15443,73
2520,65	4548,54
2521,96	8732,54
2523,26	6524,83
2524,57	6555,55
2525,87	6379,42
2527,17	13729,58
2528,47	10950,49
2529,78	10600,29
2531,08	8126,34
2532,38	7464,85
2533,68	8994,68
2534,98	6356,89
2536,28	7374,74
2537,58	4028,35
2538,88	6723,48
2540,18	5236,66
2541,47	11544,40
2542,77	7886,73
2544,07	14675,74
2545,37	8658,81
2546,66	5375,92
2547,96	8580,99
2549,25	5951,40
2550,55	7045,01
2551,84	5353,39
2553,14	4331,45
2554,43	7278,48
2555,72	9426,80
2557,02	7993,22
2558,31	5187,50
2559,60	7247,76
2560,89	14726,94
2562,18	8396,67
2563,48	13135,67
2564,77	10563,42
2566,06	8877,94
2567,35	10012,52
2568,63	7196,56
2569,92	6358,94
2571,21	7739,27
2572,50	5982,12
2573,79	11128,66
2575,07	5199,79
2576,36	6989,72
2577,65	6969,24
2578,93	11468,62
2580,22	14092,07
2581,50	9789,29
2582,79	10219,36
2584,07	6213,54
2585,36	6657,95
2586,64	9496,43
2587,92	8071,04
2589,20	8855,42
2590,49	6295,46
2591,77	6422,43
2593,05	8062,85
2594,33	8130,44
2595,61	7391,12
2596,89	8826,75
2598,17	8284,03
2599,45	10190,69
2600,73	6383,52
2602,00	5404,59
2603,28	5633,96
2604,56	5177,26
2605,84	7761,80
2607,11	4829,11
2608,39	6791,06
2609,67	12883,77
2610,94	5953,45
2612,22	6098,85
2613,49	9275,25
2614,76	7679,88
2616,04	8097,67
2617,31	7440,27
2618,58	6928,28
2619,86	7868,30
2621,13	9256,82
2622,40	7518,09
2623,67	7722,89
2624,94	19556,05
2626,21	9987,94
2627,48	7255,95
2628,75	7565,20
2630,02	4491,20
2631,29	14790,43
2632,56	8474,49
2633,82	7731,08
2635,09	7485,33
2636,36	7456,65
2637,63	8935,29
2638,89	5478,32
2640,16	13150,01
2641,42	9267,06
2642,69	8671,10
2643,95	7870,34
2645,22	5179,31
2646,48	8597,37
2647,74	14405,41
2649,01	6113,19
2650,27	5543,85
2651,53	7266,19
2652,79	7309,20
2654,05	7495,57
2655,31	5892,01
2656,57	7034,77
2657,83	4818,87
2659,09	6178,72
2660,35	6756,25
2661,61	5990,31
2662,87	5705,64
2664,13	5830,57
2665,38	9592,69
2666,64	11018,07
2667,90	7460,75
2669,15	6285,22
2670,41	6686,62
2671,67	6877,08
2672,92	9312,11
2674,17	5730,22
2675,43	6463,39
2676,68	8863,61
2677,94	7978,89
2679,19	9885,55
2680,44	5719,98
2681,69	7034,77
2682,95	5226,42
2684,20	13852,46
2685,45	14477,09
2686,70	6027,17
2687,95	7235,47
2689,20	5140,40
2690,45	7651,21
2691,70	7178,13
2692,94	14223,14
2694,19	6227,87
2695,44	7731,08
2696,69	13315,89
2697,93	7204,75
2699,18	6961,05
2700,43	7059,35
2701,67	11560,78
2702,92	12502,85
2704,16	7894,92
2705,41	7243,67
2706,65	7466,89
2707,89	9996,14
2709,14	6567,84
2710,38	9013,11
2711,62	8947,58
2712,86	5967,78
2714,11	6559,64
2715,35	9322,35
2716,59	8030,09
2717,83	14716,70
2719,07	13821,74
2720,31	9928,55
2721,55	10973,02
2722,78	11708,24
2724,02	7208,85
2725,26	7337,87
2726,50	7649,16
2727,73	13569,84
2728,97	18028,27
2730,21	7667,60
2731,44	9586,54
2732,68	9746,28
2733,91	6285,22
2735,15	5513,13
2736,38	9457,52
2737,62	10063,72
2738,85	7507,85
2740,08	10729,31
2741,32	9695,08
2742,55	7378,83
2743,78	6903,70
2745,01	10217,32
2746,24	8679,29
2747,47	7849,86
2748,70	11605,84
2749,93	8816,51
2751,16	13066,04
2752,39	16344,84
2753,62	8511,36
2754,85	6010,79
2756,08	7733,13
2757,30	9543,53
2758,53	11099,99
2759,76	7114,64
2760,98	8255,36
2762,21	8372,10
2763,43	13557,55
2764,66	6047,65
2765,88	7757,71
2767,11	5619,63
2768,33	7550,86
2769,55	5658,54
2770,78	9275,25
2772,00	6477,73
2773,22	14952,22
2774,44	7284,62
2775,67	9744,24
2776,89	8347,52
2778,11	6121,38
2779,33	8710,01
2780,55	7823,24
2781,77	6504,35
2782,99	10033,00
2784,20	12027,72
2785,42	11034,46
2786,64	6344,61
2787,86	6037,41
2789,07	9508,72
2790,29	11315,03
2791,51	9385,84
2792,72	9174,90
2793,94	12990,27
2795,15	10297,19
2796,37	10743,64
2797,58	8542,08
2798,80	12949,31
2800,01	11298,64
2801,22	9025,40
2802,44	8634,24
2803,65	12324,68
2804,86	7430,03
2806,07	11247,44
2807,28	6592,41
2808,49	8056,71
2809,70	9478,00
2810,91	7980,93
2812,12	10889,05
2813,33	18417,38
2814,54	8566,65
2815,75	15925,00
2816,96	9594,73
2818,16	10985,30
2819,37	7868,30
2820,58	8370,05
2821,78	9895,78
2822,99	10112,87
2824,20	10344,29
2825,40	11186,01
2826,61	10108,77
2827,81	8087,43
2829,01	15574,80
2830,22	10917,72
2831,42	11542,35
2832,62	10743,64
2833,83	10106,73
2835,03	13176,63
2836,23	10157,93
2837,43	10172,26
2838,63	12179,27
2839,83	11143,00
2841,03	13879,08
2842,23	8140,68
2843,43	10321,76
2844,63	9006,97
2845,83	10764,12
2847,03	7194,51
2848,22	13373,24
2849,42	10041,19
2850,62	8413,06
2851,81	12635,97
2853,01	8408,96
2854,21	9668,46
2855,40	11609,93
2856,60	12015,43
2857,79	12044,10
2858,99	9584,49
2860,18	13287,22
2861,37	15775,50
2862,57	14173,99
2863,76	13369,14
2864,95	10342,24
2866,14	13049,66
2867,33	13125,43
2868,52	14880,54
2869,72	13717,29
2870,91	15697,68
2872,10	20696,77
2873,28	15290,13
2874,47	21769,91
2875,66	20305,61
2876,85	23408,28
2878,04	27008,61
2879,23	28085,84
2880,41	20188,88
2881,60	19142,36
2882,79	22462,12
2883,97	18882,27
2885,16	22761,12
2886,34	21911,22
2887,53	25235,07
2888,71	23506,59
2889,90	20088,53
2891,08	19701,46
2892,26	21262,01
2893,45	19951,31
2894,63	19871,44
2895,81	19689,17
2896,99	17561,33
2898,17	22236,84
2899,36	21454,52
2900,54	22468,27
2901,72	20563,65
2902,90	20537,03
2904,08	19326,68
2905,26	20836,03
2906,43	16154,38
2907,61	19943,12
2908,79	26095,22
2909,97	16660,23
2911,14	18280,17
2912,32	18863,84
2913,50	18568,93
2914,67	18110,19
2915,85	20401,86
2917,02	18419,43
2918,20	16856,83
2919,37	20451,02
2920,55	20498,12
2921,72	20555,46
2922,90	25996,92
2924,07	25642,62
2925,24	30103,09
2926,41	23842,45
2927,58	28663,37
2928,76	27022,95
2929,93	32513,55
2931,10	29623,87
2932,27	30797,35
2933,44	38778,29
2934,61	33228,29
2935,78	43654,50
2936,95	27739,74
2938,11	32730,64
2939,28	30086,71
2940,45	32247,32
2941,62	28556,88
2942,78	37850,56
2943,95	27082,34
2945,12	23244,45
2946,28	23695,00
2947,45	20768,45
2948,61	23068,32
2949,78	18857,70
2950,94	16942,85
2952,10	23594,65
2953,27	22367,91
2954,43	19064,54
2955,59	16543,49
2956,76	15787,79
2957,92	15261,46
2959,08	20330,19
2960,24	19850,96
2961,40	13369,14
2962,56	14952,22
2963,72	19109,60
2964,88	19443,42
2966,04	22206,13
2967,20	16742,14
2968,36	20688,58
2969,52	18122,48
2970,67	17393,40
2971,83	17841,90
2972,99	15159,06
2974,14	18761,44
2975,30	18185,96
2976,46	34940,39
2977,61	17497,84
2978,77	15525,65
2979,92	16135,95
2981,08	20631,24
2982,23	19633,88
2983,38	17614,58
2984,54	17417,97
2985,69	20563,65
2986,84	21509,82
2987,99	32615,95
2989,15	14112,55
2990,30	16051,98
2991,45	18667,24
2992,60	14130,98
2993,75	13999,91
2994,90	13686,58
2996,05	11845,45
2997,20	21126,85
2998,35	10676,06
2999,49	12529,47
3000,64	9899,88
3001,79	9928,55
3002,94	14413,60
3004,08	15089,43
3005,23	11593,55
3006,38	9015,16
3007,52	10831,71
3008,67	13856,56
3009,81	10162,02
3010,96	8054,66
3012,10	10579,81
3013,25	9774,95
3014,39	10936,15
3015,53	6961,05
3016,67	11507,54
3017,82	19238,62
3018,96	9686,89
3020,10	14528,29
3021,24	9637,74
3022,38	12347,20
3023,52	10964,82
3024,66	8664,96
3025,80	10420,06
3026,94	9215,86
3028,08	9111,41
3029,22	13285,17
3030,36	8775,55
3031,50	10686,30
3032,63	12431,17
3033,77	6774,68
3034,91	12527,42
3036,04	9209,72
3037,18	10190,69
3038,32	10004,33
3039,45	8431,49
3040,59	11413,33
3041,72	12982,07
3042,86	8286,08
3043,99	9060,21
3045,12	9488,24
3046,26	8222,59
3047,39	7458,70
3048,52	10678,11
3049,65	10082,15
3050,78	6447,01
3051,92	7913,35
3053,05	11237,20
3054,18	13137,72
3055,31	14438,18
3056,44	15126,30
3057,57	7561,10
3058,70	10528,61
3059,82	7651,21
3060,95	9277,30
3062,08	12826,43
3063,21	11163,48
3064,34	7157,65
3065,46	10860,38
3066,59	13788,97
3067,71	13582,13
3068,84	12986,17
3069,97	9621,36
3071,09	12699,45
3072,22	8298,37
3073,34	9326,45
3074,46	11480,91
3075,59	8777,59
3076,71	11536,21
3077,83	11151,19
3078,96	12980,03
3080,08	10004,33
3081,20	8603,52
3082,32	13969,19
3083,44	10284,90
3084,56	11589,46
3085,68	16375,56
3086,80	15787,79
3087,92	9914,22
3089,04	9389,94
3090,16	17522,42
3091,28	13403,96
3092,40	14886,68
3093,51	11343,70
3094,63	11378,51
3095,75	11673,42
3096,87	13176,63
3097,98	13170,49
3099,10	10831,71
3100,21	23611,03
3101,33	10305,38
3102,44	19906,26
3103,56	12842,81
3104,67	9052,02
3105,79	8769,40
3106,90	10895,19
3108,01	10391,39
3109,12	9492,34
3110,24	16070,41
3111,35	16064,27
3112,46	11157,33
3113,57	12005,19
3114,68	8329,09
3115,79	11120,47
3116,90	13512,50
3118,01	17334,01
3119,12	12996,41
3120,23	9949,03
3121,34	17200,89
3122,45	11392,85
3123,56	11984,71
3124,66	11976,52
3125,77	11374,42
3126,88	14907,16
3127,98	11446,10
3129,09	13526,83
3130,20	16951,04
3131,30	11712,33
3132,41	12144,45
3133,51	13870,89
3134,61	13262,65
3135,72	16584,45
3136,82	12076,87
3137,93	11106,13
3139,03	14909,21
3140,13	15015,71
3141,23	11732,81
3142,33	17125,11
3143,44	15347,48
3144,54	9107,32
3145,64	10919,77
3146,74	18247,40
3147,84	14389,03
3148,94	9830,25
3150,04	14370,60
3151,14	14466,85
3152,23	16168,71
3153,33	12754,75
3154,43	12648,26
3155,53	13027,13
3156,63	13315,89
3157,72	15521,56
3158,82	12177,22
3159,91	14223,14
3161,01	13207,35
3162,11	14298,92
3163,20	10907,48
3164,30	17544,95
3165,39	15310,61
3166,48	20756,16
3167,58	12009,29
3168,67	14653,22
3169,76	18102,00
3170,86	12183,37
3171,95	15394,58
3173,04	19777,23
3174,13	14425,89
3175,22	11945,80
3176,31	14581,54
3177,40	16516,87
3178,49	18822,88
3179,58	12312,39
3180,67	16553,73
3181,76	15134,49
3182,85	14829,34
3183,94	12465,99
3185,03	14880,54
3186,11	16285,45
3187,20	15996,68
3188,29	14808,86
3189,37	12316,48
3190,46	20045,52
3191,55	13051,70
3192,63	17407,73
3193,72	16477,96
3194,80	15691,54
3195,89	14155,56
3196,97	13594,42
3198,05	15705,87
3199,14	18501,35
3200,22	12975,93
3201,30	16705,28
3202,38	15871,76
3203,47	17833,71
3204,55	14018,35
3205,63	13649,71
3206,71	17708,79
3207,79	16101,13
3208,87	18652,90
3209,95	17002,24
3211,03	14679,84
3212,11	13580,08
3213,19	17745,65
3214,27	16772,86
3215,34	14589,73
3216,42	13344,56
3217,50	15283,99
3218,58	14593,83
3219,65	14649,12
3220,73	14827,29
3221,80	13856,56
3222,88	15302,42
3223,96	13303,60
3225,03	14239,53
3226,10	18663,14
3227,18	18317,03
3228,25	17157,88
3229,33	20076,24
3230,40	14855,97
3231,47	16434,95
3232,54	15832,85
3233,62	18624,23
3234,69	17391,35
3235,76	16611,07
3236,83	19394,26
3237,90	18106,09
3238,97	16013,07
3240,04	14743,33
3241,11	14401,32
3242,18	16862,97
3243,25	14976,80
3244,32	19791,57
3245,39	23889,56
3246,45	16860,93
3247,52	14190,38
3248,59	16172,81
3249,66	16350,98
3250,72	19365,59
3251,79	16441,09
3252,85	14419,75
3253,92	18835,17
3254,98	16658,18
3256,05	17618,68
3257,11	14714,66
3258,18	14169,90
3259,24	13651,76
3260,30	16606,98
3261,37	16541,44
3262,43	17956,59
3263,49	13469,49
3264,55	20901,57
3265,62	18597,60
3266,68	14868,25
3267,74	19744,47
3268,80	15658,77
3269,86	20143,82
3270,92	14980,89
3271,98	19564,25
3273,04	17907,44
3274,10	15339,29
3275,16	24006,29
3276,21	16936,70
3277,27	15843,09
3278,33	13379,38
3279,39	19885,78
3280,44	14718,75
3281,50	16961,28
3282,56	12619,58
3283,61	19947,22
3284,67	18235,11
3285,72	17886,96
3286,78	32613,90
3287,83	14915,36
3288,88	14214,95
3289,94	18865,89
3290,99	24659,59
3292,04	17088,25
3293,10	16983,80
3294,15	20750,02
3295,20	19756,75
3296,25	20633,29
3297,30	19091,16
3298,36	13317,94
3299,41	13948,72
3300,46	15052,57
3301,51	16539,40
3302,56	18804,45
3303,61	18898,66
3304,65	14225,19
3305,70	16512,77
3306,75	17026,81
3307,80	17182,46
3308,85	13360,95
3309,89	19082,97
3310,94	18982,62
3311,99	12975,93
3313,03	15855,37
3314,08	16471,81
3315,12	16387,85
3316,17	15836,94
3317,21	15879,95
3318,26	15615,76
3319,30	20348,62
3320,35	14475,04
3321,39	14681,89
3322,43	20995,78
3323,48	19730,13
3324,52	15224,60
3325,56	15943,44
3326,60	18710,24
3327,64	16764,67
3328,68	15599,38
3329,73	14112,55
3330,77	15202,07
3331,81	14898,97
3332,85	19447,51
3333,88	16273,16
3334,92	16043,79
3335,96	16234,25
3337,00	14921,50
3338,04	15240,98
3339,08	14450,47
3340,11	14538,53
3341,15	17594,10
3342,19	16262,92
3343,22	15228,70
3344,26	18472,68
3345,30	19822,29
3346,33	14358,31
3347,37	17143,55
3348,40	21685,94
3349,43	18841,31
3350,47	17262,33
3351,50	18157,29
3352,54	15798,03
3353,57	16021,26
3354,60	19369,69
3355,63	22591,14
3356,67	17231,61
3357,70	15783,70
3358,73	15130,39
3359,76	27833,94
3360,79	20534,98
3361,82	18732,77
3362,85	22122,16
3363,88	19709,65
3364,91	18341,61
3365,94	15157,02
3366,97	14972,70
3367,99	17303,29
3369,02	20090,57
3370,05	21665,46
3371,08	14253,86
3372,10	14186,28
3373,13	17788,66
3374,16	15566,61
3375,18	14804,77
3376,21	14313,25
3377,23	15677,20
3378,26	15570,71
3379,28	14915,36
3380,31	16760,58
3381,33	18145,00
3382,35	18583,27
3383,38	15838,99
3384,40	16731,90
3385,42	15599,38
3386,45	13989,67
3387,47	15054,62
3388,49	18233,07
3389,51	29429,31
3390,53	14108,46
3391,55	13920,04
3392,57	15853,33
3393,59	22929,06
3394,61	17293,05
3395,63	15585,04
3396,65	17946,35
3397,67	15173,40
3398,69	13252,41
3399,70	15243,03
3400,72	17252,09
3401,74	23307,93
3402,76	15970,06
3403,77	15109,91
3404,79	20502,22
3405,80	17168,12
3406,82	16717,57
3407,83	17493,75
3408,85	15785,74
3409,86	20027,09
3410,88	21317,31
3411,89	14063,40
3412,91	22582,95
3413,92	15109,91
3414,93	15296,28
3415,94	19717,84
3416,96	16901,89
3417,97	25732,73
3418,98	21190,33
3419,99	18499,30
3421,00	17467,13
3422,01	16590,59
3423,02	13344,56
3424,03	14843,68
3425,04	17979,12
3426,05	15535,89
3427,06	18986,72
3428,07	17385,21
3429,08	15873,81
3430,09	22369,96
3431,09	17020,67
3432,10	18013,93
3433,11	17802,99
3434,12	20860,61
3435,12	18347,75
3436,13	16930,56
3437,13	18263,79
3438,14	14436,13
3439,14	13291,32
3440,15	14384,93
3441,15	15404,82
3442,16	19310,30
3443,16	15222,55
3444,16	13496,11
3445,17	16770,82
3446,17	17557,24
3447,17	17643,25
3448,17	17669,87
3449,18	17741,55
3450,18	17723,12
3451,18	14978,84
3452,18	22585,00
3453,18	15922,96
3454,18	17923,82
3455,18	14921,50
3456,18	18106,09
3457,18	13631,28
3458,18	16082,70
3459,17	23037,60
3460,17	14901,02
3461,17	16203,53
3462,17	17590,00
3463,17	17913,58
3464,16	14935,84
3465,16	16019,21
3466,15	15945,48
3467,15	18204,39
3468,15	13731,63
3469,14	19279,58
3470,14	15509,27
3471,13	17669,87
3472,13	21036,74
3473,12	14886,68
3474,11	13408,05
3475,11	14591,78
3476,10	15255,32
3477,09	20168,40
3478,08	14458,66
3479,08	16217,86
3480,07	14989,08
3481,06	15367,96
3482,05	17932,01
3483,04	18321,13
3484,03	12101,45
3485,02	14059,31
3486,01	22589,10
3487,00	14870,30
3487,99	19199,71
3488,98	14685,98
3489,97	19316,44
3490,95	14237,48
3491,94	12363,59
3492,93	12234,57
3493,92	13324,08
3494,90	14491,43
3495,89	18280,17
3496,88	11841,36
3497,86	16228,10
3498,85	17731,31
3499,83	13664,05
3500,82	11216,72
3501,80	16748,29
3502,79	11806,54
3503,77	19349,21
3504,75	15660,82
3505,74	13203,25
3506,72	14905,12
3507,70	14425,89
3508,68	11403,09
3509,67	13008,70
3510,65	15574,80
3511,63	14321,45
3512,61	10823,51
3513,59	13520,69
3514,57	13313,84
3515,55	15404,82
3516,53	11882,31
3517,51	13934,38
3518,49	15861,52
3519,47	16314,12
3520,45	17555,19
3521,42	14999,32
3522,40	16398,09
3523,38	12324,68
3524,36	19293,91
3525,33	11061,08
3526,31	13328,18
3527,29	10372,96
3528,26	17262,33
3529,24	22554,28
3530,21	15087,39
3531,19	10960,73
3532,16	15283,99
3533,14	12107,59
3534,11	14716,70
3535,08	12552,00
3536,06	14100,26
3537,03	11448,15
3538,00	11380,56
3538,98	13989,67
3539,95	17090,30
3540,92	16961,28
3541,89	14034,73
3542,86	11730,76
3543,83	12760,89
3544,80	12545,86
3545,77	12650,30
3546,74	10809,18
3547,71	9820,01
3548,68	15267,61
3549,65	16193,29
3550,62	10510,18
3551,59	15335,19
3552,56	16146,19
3553,52	10651,49
3554,49	11454,29
3555,46	11571,02
3556,42	9992,04
3557,39	12367,68
3558,36	14090,02
3559,32	15120,15
3560,29	15869,71
3561,25	12601,15
3562,22	10399,59
3563,18	9723,76
3564,15	15345,43
3565,11	9873,26
3566,07	11194,20
3567,04	18548,45
3568,00	14278,44
3568,96	9985,90
3569,92	10354,53
3570,89	13244,21
3571,85	12918,59
3572,81	9031,54
3573,77	11099,99
3574,73	12965,69
3575,69	12388,16
3576,65	9285,49
3577,61	11120,47
3578,57	13659,95
3579,53	11833,16
3580,49	9015,16
3581,45	11046,74
3582,40	10970,97
3583,36	10532,70
3584,32	11571,02
3585,28	8310,66
3586,23	8974,20
3587,19	10362,72
3588,15	12715,84
3589,10	10153,83
3590,06	8503,17
3591,01	12996,41
3591,97	10127,21
3592,92	9174,90
3593,88	8986,49
3594,83	9385,84
3595,78	8255,36
3596,74	8204,16
3597,69	11732,81
3598,64	15341,33
3599,60	7440,27
3600,55	9332,59
3601,50	9961,32
3602,45	9549,68
3603,40	15417,11
3604,35	8951,67
3605,31	9985,90
3606,26	8953,72
3607,21	10485,60
3608,16	12138,31
3609,10	14425,89
3610,05	10162,02
3611,00	12189,51
3611,95	10700,64
3612,90	10870,62
3613,85	13436,72
3614,79	13502,26
3615,74	13150,01
3616,69	15269,66
3617,63	9293,68
3618,58	14118,70
3619,53	13504,31
3620,47	10358,63
3621,42	12416,83
3622,36	11263,83
3623,31	9240,44
3624,25	11736,91
3625,20	9015,16
3626,14	6844,31
3627,08	7784,33
3628,03	8271,75
3628,97	8251,27
3629,91	10702,68
3630,85	10342,24
3631,80	8896,38
3632,74	13020,99
3633,68	19912,40
3634,62	9820,01
3635,56	8150,92
3636,50	11874,12
3637,44	7217,04
3638,38	30314,03
3639,32	8376,19
3640,26	10420,06
3641,20	9127,80
3642,14	8322,94
3643,08	9246,58
3644,01	12787,52
3644,95	8908,66
3645,89	9604,97
3646,83	8116,10
3647,76	12238,66
3648,70	6965,14
3649,63	16502,53
3650,57	8273,79
3651,51	12394,31
3652,44	7348,11
3653,38	12382,02
3654,31	9111,41
3655,24	10467,17
3656,18	9031,54
3657,11	12922,68
3658,05	6905,75
3658,98	13911,85
3659,91	8312,71
3660,84	8302,47
3661,78	9566,06
3662,71	9443,18
3663,64	7479,18
3664,57	12832,57
3665,50	8009,61
3666,43	12570,43
3667,36	9271,15
3668,29	11351,89
3669,22	10004,33
3670,15	11001,69
3671,08	10897,24
3672,01	7305,10
3672,94	8978,30
3673,86	11374,42
3674,79	7174,03
3675,72	13000,51
3676,65	13055,80
3677,57	11796,30
3678,50	13555,51
3679,43	9162,61
3680,35	9019,25
3681,28	7339,92
3682,20	9056,12
3683,13	8812,41
3684,05	9256,82
3684,98	8781,69
3685,90	5083,06
3686,83	12435,27
3687,75	14788,38
3688,67	9713,52
3689,60	9283,44
3690,52	10499,94
3691,44	8800,12
3692,36	9326,45
3693,28	5885,86
3694,21	8587,13
3695,13	7886,73
3696,05	11415,38
3696,97	7829,38
3697,89	7927,69
3698,81	9021,30
3699,73	10284,90
3700,65	7985,03
3701,57	8019,85
3702,48	6520,73
3703,40	11442,00
3704,32	9396,08
3705,24	11272,02
3706,16	8949,62
3707,07	11382,61
3707,99	5187,50
3708,91	10200,93
3709,82	9975,66
3710,74	8484,73
3711,66	8200,07
3712,57	10454,88
3713,49	14499,62
3714,40	7157,65
3715,31	14559,01
3716,23	6098,85
3717,14	11517,78
3718,06	7528,33
3718,97	7841,67
3719,88	9572,21
3720,80	10518,37
3721,71	63214,65
3722,62	10794,84
3723,53	60982,37
3724,44	9336,69
3725,35	10946,39
3726,26	6154,15
3727,18	5261,23
3728,09	6842,26
3729,00	10385,25
3729,91	12715,84
3730,81	6741,91
3731,72	8351,62
3732,63	11634,51
3733,54	4999,09
3734,45	7301,01
3735,36	11556,69
3736,26	8050,57
3737,17	6080,42
3738,08	16340,74
3738,99	15101,72
3739,89	8245,12
3740,80	11820,88
3741,70	10704,73
3742,61	6289,31
3743,51	9312,11
3744,42	6743,96
3745,32	9002,87
3746,23	10942,30
3747,13	7810,95
3748,04	11747,15
3748,94	6971,29
3749,84	8781,69
3750,74	6725,53
3751,65	7411,60
3752,55	7497,61
3753,45	8218,50
3754,35	8103,81
3755,25	4362,17
3756,16	5328,81
3757,06	6952,85
3757,96	10270,56
3758,86	7759,75
3759,76	7161,75
3760,66	5619,63
3761,55	9246,58
3762,45	5627,82
3763,35	6309,79
3764,25	7853,96
3765,15	7550,86
3766,05	4753,34
3766,94	7094,16
3767,84	7073,68
3768,74	5599,15
3769,63	9236,34
3770,53	6723,48
3771,43	10678,11
3772,32	6848,41
3773,22	8533,89
3774,11	13066,04
3775,01	6465,44
3775,90	6401,95
3776,80	9123,70
3777,69	7061,40
3778,58	9369,46
3779,48	6383,52
3780,37	6045,60
3781,26	11302,74
3782,16	8931,19
3783,05	10786,65
3783,94	6487,96
3784,83	10532,70
3785,72	10864,47
3786,61	12836,67
3787,50	4714,42
3788,39	11323,22
3789,28	6887,32
3790,17	8998,77
3791,06	4825,01
3791,95	6516,64
3792,84	5277,62
3793,73	7008,15
3794,62	7585,68
3795,51	6215,59
3796,39	10063,72
3797,28	6340,51
3798,17	7878,54
3799,06	5494,70
3799,94	11798,35
3800,83	11990,86
3801,71	8384,38
3802,60	7980,93
3803,48	6387,61
3804,37	5906,34
3805,25	6815,64
3806,14	6856,60
3807,02	8494,97
3807,91	5752,74
3808,79	8083,33
3809,67	15978,25
3810,56	14169,90
3811,44	6074,28
3812,32	9293,68
3813,20	9951,08
3814,09	5719,98
3814,97	6832,02
3815,85	9758,57
3816,73	9324,40
3817,61	10231,65
3818,49	9676,65
3819,37	5875,62
3820,25	9310,07
3821,13	5748,65
3822,01	8918,90
3822,89	7260,05
3823,77	8095,62
3824,65	11143,00
3825,52	9641,84
3826,40	7239,57
3827,28	5486,51
3828,16	9099,13
3829,03	10293,09
3829,91	12750,65
3830,79	5117,87
3831,66	13078,33
3832,54	6518,68
3833,41	20575,94
3834,29	7384,98
3835,16	9361,27
3836,04	6512,54
3836,91	6844,31
3837,79	9381,74
3838,66	4956,08
3839,53	8941,43
3840,41	4681,66
3841,28	10985,30
3842,15	8345,47
3843,02	11016,02
3843,90	5869,48
3844,77	6854,55
3845,64	9809,77
3846,51	16170,76
3847,38	6993,81
3848,25	6223,78
3849,12	12994,36
3849,99	12285,76
3850,86	16289,54
3851,73	6463,39
3852,60	13557,55
3853,47	9621,36
3854,34	6973,33
3855,21	6250,40
3856,07	7819,14
3856,94	11609,93
3857,81	12218,18
3858,68	6342,56
3859,54	8079,24
3860,41	6948,76
3861,28	9277,30
3862,14	10780,51
3863,01	10897,24
3863,87	7040,92
3864,74	12838,72
3865,60	6021,03
3866,47	9682,80
3867,33	8560,51
3868,19	7358,35
3869,06	6014,88
3869,92	7096,21
3870,78	12074,82
3871,65	6705,05
3872,51	13913,90
3873,37	11857,74
3874,23	21206,72
3875,10	5844,90
3875,96	13238,07
3876,82	11345,75
3877,68	14296,87
3878,54	7745,42
3879,40	8267,65
3880,26	5730,22
3881,12	8755,07
3881,98	7243,67
3882,84	10667,87
3883,70	7378,83
3884,55	7280,53
3885,41	4947,89
3886,27	7221,14
3887,13	11802,44
3887,99	11734,86
3888,84	5038,00
3889,70	10815,32
3890,56	13215,54
3891,41	8859,51
3892,27	4427,71
3893,12	8935,29
3893,98	11898,70
3894,83	9783,15
3895,69	10082,15
3896,54	8265,60
3897,40	11392,85
3898,25	7993,22
3899,11	12605,25
3899,96	8015,75
3900,81	9516,91
3901,66	6594,46
3902,52	6029,22
3903,37	8624,00
3904,22	12728,13
3905,07	10454,88
3905,92	5676,97
3906,78	13834,03
3907,63	6559,64
>>>>>End Processed Spectral Data<<<<<
