SpectraSuite Datei
++++++++++++++++++++++++++++++++++++
Datum: Wed Nov 28 10:33:00 CET 2018
Benutzer: Raman
Dark-Spektrum vorhanden: Ja
Referenz-Spektrum vorhanden: Nein
Zahl der probierten Teilspektren: 1
Spektrometer: USB4F00098
Integrationszeit (usec): 4000000 (USB4F00098)
Spektren Durchschnitt berechnet: 1 (USB4F00098)
Boxcar Glättung: 0 (USB4F00098)
Dunkelstromkorrektur: Nein (USB4F00098)
Puls/Lampe aktiviert: Nein (USB4F00098)
Correct for Detector Non-linearity: Nein (USB4F00098)
Streulichtkorrektur: Nein (USB4F00098)
Anzahl Pixel in verarbeitetem Spektrum: 3648
>>>>>Begin Processed Spectral Data<<<<<
476,77	-79,87
476,84	-79,87
476,91	-79,87
476,98	-61,44
477,04	34,82
477,11	88,06
477,18	0,00
477,25	311,29
477,32	182,27
477,39	-2,05
477,45	-75,77
477,52	65,53
477,59	-47,10
477,66	374,78
477,73	489,46
477,80	296,96
477,86	448,51
477,93	438,27
478,00	1363,95
478,07	2627,54
478,14	2680,79
478,21	2803,67
478,27	2355,16
478,34	2609,11
478,41	2723,80
478,48	2908,12
478,55	2600,92
478,62	3012,56
478,68	3110,86
478,75	2670,55
478,82	2498,52
478,89	2615,26
478,96	2629,59
479,02	2676,70
479,09	2551,77
479,16	2570,20
479,23	2641,88
479,30	2889,68
479,37	2813,91
479,43	2447,32
479,50	2459,61
479,57	2564,06
479,64	2373,60
479,71	2670,55
479,77	2588,63
479,84	2930,64
479,91	2699,22
479,98	2643,93
480,05	2639,83
480,11	2592,73
480,18	2844,63
480,25	2904,02
480,32	2652,12
480,39	2789,33
480,45	2725,85
480,52	2981,84
480,59	2807,77
480,66	2746,33
480,73	2805,72
480,79	2842,58
480,86	2717,65
480,93	2838,48
481,00	2863,06
481,07	2674,65
481,13	2451,42
481,20	2596,82
481,27	2598,87
481,34	2725,85
481,41	2617,30
481,47	2641,88
481,54	2695,13
481,61	2949,08
481,68	2795,48
481,74	3106,77
481,81	3194,83
481,88	2967,51
481,95	3239,89
482,02	3633,10
482,08	2992,08
482,15	2744,28
482,22	2955,22
482,29	3065,81
482,35	2924,50
482,42	2861,01
482,49	2904,02
482,56	2914,26
482,63	2910,16
482,69	3219,41
482,76	2932,69
482,83	3121,10
482,90	3002,32
482,96	2625,50
483,03	3082,19
483,10	3293,13
483,17	3209,17
483,24	2973,65
483,30	3010,51
483,37	2738,13
483,44	2748,37
483,51	3000,27
483,57	2957,27
483,64	2955,22
483,71	2691,03
483,78	2901,97
483,84	3074,00
483,91	3000,27
483,98	3033,04
484,05	3444,68
484,11	3119,06
484,18	3239,89
484,25	3217,36
484,32	3239,89
484,38	3348,43
484,45	3585,99
484,52	3401,68
484,59	3710,92
484,65	3499,98
484,72	3063,76
484,79	3004,37
484,86	3110,86
484,92	3538,89
484,99	3483,59
485,06	3168,21
485,13	3286,99
485,19	3555,27
485,26	3483,59
485,33	3243,98
485,40	3395,53
485,46	3325,90
485,53	3395,53
485,60	3254,22
485,67	3149,78
485,73	2873,30
485,80	3063,76
485,87	2979,79
485,94	3375,05
486,00	3377,10
486,07	3463,12
486,14	3373,00
486,20	3801,03
486,27	3020,75
486,34	3125,20
486,41	3217,36
486,47	3502,03
486,54	3803,08
486,61	4030,40
486,68	3803,08
486,74	3774,41
486,81	3721,16
486,88	3471,31
486,94	3102,67
487,01	3448,78
487,08	3579,85
487,15	3522,51
487,21	3854,28
487,28	3702,73
487,35	3510,22
487,41	3483,59
487,48	3850,18
487,55	3944,39
487,62	3360,72
487,68	3608,52
487,75	3680,20
487,82	3897,28
487,88	3436,49
487,95	3717,06
488,02	3618,76
488,09	3692,49
488,15	3973,06
488,22	3917,76
488,29	3190,74
488,35	3416,01
488,42	3545,03
488,49	3977,16
488,56	3635,14
488,62	4020,16
488,69	3991,49
488,76	4079,55
488,82	4245,44
488,89	3839,94
488,96	3721,16
489,02	3764,17
489,09	4040,64
489,16	4347,84
489,22	4378,56
489,29	4155,33
489,36	4112,32
489,43	3960,77
489,49	3708,87
489,56	3846,09
489,63	3981,25
489,69	3956,68
489,76	4026,31
489,83	3708,87
489,89	3821,51
489,96	3930,05
490,03	3952,58
490,09	4501,44
490,16	4122,56
490,23	3735,50
490,29	3629,00
490,36	3561,42
490,43	3971,01
490,50	4218,82
490,56	4001,73
490,63	4011,97
490,70	3917,76
490,76	4057,03
490,83	3989,44
490,90	4249,54
490,96	3858,37
491,03	3925,96
491,10	3940,29
491,16	4362,17
491,23	4067,27
491,30	4028,35
491,36	4157,38
491,43	4276,16
491,50	4024,26
491,56	3991,49
491,63	4413,37
491,70	4558,78
491,76	3936,20
491,83	4294,59
491,90	4292,54
491,96	4274,11
492,03	4417,47
492,10	4536,25
492,16	4702,14
492,23	4458,43
492,30	4360,13
492,36	3876,80
492,43	4609,98
492,50	4593,59
492,56	4204,48
492,63	4741,05
492,70	4626,36
492,76	4417,47
492,83	4751,29
492,89	5203,89
492,96	4898,74
493,03	4992,95
493,09	4769,72
493,16	4962,23
493,23	4523,96
493,29	4532,15
493,36	4904,89
493,43	4782,01
493,49	4818,87
493,56	4622,27
493,63	4476,86
493,69	5115,83
493,76	5334,96
493,82	5085,11
493,89	5062,58
493,96	4896,69
494,02	5087,15
494,09	5291,95
494,16	5326,77
494,22	4945,84
494,29	4923,32
494,36	5130,16
494,42	4949,94
494,49	5052,34
494,55	5275,57
494,62	5238,70
494,69	5255,09
494,75	5730,22
494,82	5545,90
494,89	5461,93
494,95	5453,74
495,02	5492,65
495,08	5726,12
495,15	5617,58
495,22	5484,46
495,28	5273,52
495,35	5271,47
495,42	5332,91
495,48	5478,32
495,55	5531,56
495,61	5396,40
495,68	6264,74
495,75	6102,95
495,81	6397,85
495,88	5892,01
495,94	6021,03
496,01	5566,38
496,08	5681,07
496,14	5805,99
496,21	5961,64
496,28	5433,26
496,34	5515,18
496,41	5724,07
496,47	6025,12
496,54	5752,74
496,61	5932,97
496,67	5814,18
496,74	5111,73
496,80	5640,11
496,87	5693,35
496,94	5990,31
497,00	6621,08
497,07	6901,65
497,13	6991,77
497,20	6662,04
497,27	6211,49
497,33	6492,06
497,40	7079,83
497,46	6623,13
497,53	6967,19
497,60	7073,68
497,66	6483,87
497,73	6389,66
497,79	6610,84
497,86	6457,25
497,93	6383,52
497,99	6360,99
498,06	7141,27
498,12	6733,72
498,19	7380,88
498,25	7540,62
498,32	7270,29
498,39	7202,71
498,45	7526,29
498,52	6647,71
498,58	7364,50
498,65	7161,75
498,72	7147,41
498,78	6426,53
498,85	6322,08
498,91	6870,94
498,98	6772,63
499,04	7073,68
499,11	7182,23
499,18	7073,68
499,24	7122,84
499,31	7817,10
499,37	7751,56
499,44	7440,27
499,50	7798,66
499,57	7872,39
499,64	7262,10
499,70	7124,88
499,77	7913,35
499,83	7481,23
499,90	7585,68
499,96	7126,93
500,03	7356,30
500,09	7722,89
500,16	7573,39
500,23	7776,14
500,29	8009,61
500,36	7864,20
500,42	7817,10
500,49	7841,67
500,55	8208,26
500,62	7622,54
500,68	7481,23
500,75	7577,48
500,82	7769,99
500,88	7409,55
500,95	7782,28
501,01	7350,16
501,08	8017,80
501,14	8179,59
501,21	8171,40
501,27	8757,11
501,34	8245,12
501,41	7632,78
501,47	8277,89
501,54	8349,57
501,60	8529,79
501,67	8378,24
501,73	8826,75
501,80	9443,18
501,86	9172,85
501,93	9742,19
501,99	8961,91
502,06	8396,67
502,12	9518,96
502,19	8503,17
502,26	9146,23
502,32	8877,94
502,39	9488,24
502,45	9037,69
502,52	9559,92
502,58	9695,08
502,65	9992,04
502,71	8822,65
502,78	8896,38
502,84	9088,89
502,91	9443,18
502,97	8472,45
503,04	9508,72
503,10	9727,85
503,17	10182,50
503,23	9590,64
503,30	10121,06
503,37	9107,32
503,43	9815,91
503,50	10551,14
503,56	10647,39
503,63	9510,77
503,69	9887,59
503,76	10033,00
503,82	8904,57
503,89	8882,04
503,95	9504,62
504,02	10071,91
504,08	10176,36
504,15	9254,77
504,21	9179,00
504,28	9625,45
504,34	9748,33
504,41	10245,99
504,47	10544,99
504,54	10479,46
504,60	10766,17
504,67	10155,88
504,73	9860,97
504,80	10104,68
504,86	10192,74
504,93	10497,89
504,99	11200,34
505,06	10174,31
505,12	10485,60
505,19	9957,22
505,25	11044,70
505,32	10985,30
505,38	11722,57
505,45	11390,80
505,51	11206,48
505,58	10850,14
505,64	11652,94
505,71	11300,69
505,77	10843,99
505,84	10624,86
505,90	11355,99
505,97	11315,03
506,03	11784,01
506,10	11212,63
506,16	11288,40
506,23	11138,90
506,29	11374,42
506,36	11278,16
506,42	11587,41
506,49	11241,30
506,55	11845,45
506,62	11620,17
506,68	11992,90
506,75	11175,77
506,81	11958,09
506,87	11054,94
506,94	12418,88
507,00	11892,55
507,07	12484,42
507,13	11886,41
507,20	11814,73
507,26	12992,31
507,33	13422,39
507,39	13061,94
507,46	12570,43
507,52	12007,24
507,59	12615,49
507,65	12728,13
507,72	13293,37
507,78	12332,87
507,85	11773,77
507,91	11536,21
507,97	13444,91
508,04	13784,88
508,10	14192,42
508,17	14393,12
508,23	13608,75
508,30	13121,34
508,36	13786,93
508,43	12613,44
508,49	13594,42
508,56	12631,87
508,62	13936,43
508,69	12881,72
508,75	14536,48
508,81	13621,04
508,88	14272,29
508,94	13915,95
509,01	14155,56
509,07	13596,46
509,14	13860,65
509,20	14542,63
509,27	15204,12
509,33	14507,81
509,39	13989,67
509,46	13068,09
509,52	13092,66
509,59	13340,47
509,65	13934,38
509,72	14778,14
509,78	15408,92
509,85	15406,87
509,91	14913,31
509,97	13809,45
510,04	14128,94
510,10	14860,06
510,17	15685,39
510,23	15609,62
510,30	15171,35
510,36	15009,56
510,42	15556,37
510,49	15904,53
510,55	15501,08
510,62	13733,68
510,68	14778,14
510,75	15066,91
510,81	16785,15
510,88	16475,91
510,94	15990,54
511,00	15116,06
511,07	15908,62
511,13	16068,36
511,20	15509,27
511,26	15445,78
511,32	16822,02
511,39	15992,59
511,45	16432,90
511,52	15886,09
511,58	16877,31
511,65	16402,18
511,71	16647,94
511,77	16137,99
511,84	15091,48
511,90	14245,67
511,97	16475,91
512,03	17784,56
512,09	19236,57
512,16	18401,00
512,22	18601,70
512,29	18073,32
512,35	18663,14
512,42	16269,06
512,48	16279,30
512,54	16893,69
512,61	17503,99
512,67	17530,61
512,74	18243,31
512,80	17207,03
512,86	17633,01
512,93	16570,12
512,99	16828,16
513,06	16824,06
513,12	17891,06
513,18	18028,27
513,25	18544,36
513,31	19252,95
513,38	19230,43
513,44	18577,12
513,50	18910,94
513,57	18188,01
513,63	19476,18
513,69	18581,22
513,76	19709,65
513,82	19957,46
513,89	19467,99
513,95	18386,66
514,01	19803,86
514,08	20405,96
514,14	20754,12
514,21	18814,69
514,27	18626,28
514,33	18712,29
514,40	18902,75
514,46	19132,12
514,53	20616,90
514,59	19873,49
514,65	20106,96
514,72	20768,45
514,78	21694,13
514,84	20610,76
514,91	20545,22
514,97	19910,35
515,04	19775,19
515,10	19830,48
515,16	20561,61
515,23	20760,26
515,29	20631,24
515,35	18085,61
515,42	20041,42
515,48	20479,69
515,54	18943,71
515,61	18181,87
515,67	20154,06
515,74	19977,94
515,80	21001,92
515,86	22662,82
515,93	22703,78
515,99	21214,91
516,05	21382,84
516,12	20113,10
516,18	18634,47
516,24	17706,74
516,31	19566,29
516,37	20141,77
516,44	20403,91
516,50	21386,94
516,56	21499,58
516,63	20600,52
516,69	20399,82
516,75	19590,87
516,82	20264,65
516,88	20084,43
516,94	21606,07
517,01	22718,12
517,07	22779,56
517,13	20629,19
517,20	22245,04
517,26	23615,13
517,32	23713,43
517,39	23410,33
517,45	22085,30
517,52	21475,00
517,58	22265,52
517,64	22681,25
517,71	22595,24
517,77	22060,72
517,83	23307,93
517,90	21921,46
517,96	23639,70
518,02	23115,42
518,09	23422,62
518,15	23144,09
518,21	22677,16
518,28	23158,43
518,34	23117,47
518,40	22331,05
518,47	24069,78
518,53	22808,23
518,59	23258,78
518,66	23187,10
518,72	23240,35
518,78	22505,13
518,85	23068,32
518,91	24403,60
518,97	24733,32
519,03	23154,33
519,10	25994,87
519,16	25585,27
519,22	25482,88
519,29	23785,11
519,35	22812,32
519,41	24194,70
519,48	25685,62
519,54	23869,08
519,60	23053,98
519,67	23893,65
519,73	25878,13
519,79	24395,40
519,86	25683,58
519,92	24372,88
519,98	24567,43
520,05	24073,87
520,11	24671,88
520,17	24262,29
520,23	25110,14
520,30	25335,42
520,36	25110,14
520,42	24671,88
520,49	27575,90
520,55	26402,41
520,61	26021,49
520,68	27596,38
520,74	28239,44
520,80	26459,76
520,87	24745,61
520,93	23731,86
520,99	24039,06
521,05	25194,11
521,12	27246,18
521,18	28542,54
521,24	28464,72
521,31	27764,31
521,37	28208,72
521,43	27504,22
521,49	28057,17
521,56	28390,99
521,62	28444,24
521,68	27563,61
521,75	28552,78
521,81	27770,46
521,87	26652,27
521,93	25157,25
522,00	27127,39
522,06	29054,53
522,12	29843,00
522,19	29640,25
522,25	30623,28
522,31	31634,97
522,37	30914,09
522,44	26996,32
522,50	28141,14
522,56	26898,02
522,63	27506,27
522,69	26377,84
522,75	27995,73
522,81	24997,51
522,88	24080,02
522,94	22558,38
523,00	21751,48
523,06	19095,26
523,13	17620,72
523,19	17794,80
523,25	15630,10
523,32	13516,59
523,38	11329,36
523,44	10045,29
523,50	8298,37
523,57	5967,78
523,63	5189,55
523,69	4718,52
523,75	3966,92
523,82	2871,25
523,88	2138,08
523,94	1697,77
524,00	1441,77
524,07	899,06
524,13	671,73
524,19	546,81
524,25	532,47
524,32	292,86
524,38	321,53
524,44	337,91
524,50	212,99
524,57	206,84
524,63	360,44
524,69	90,11
524,75	178,17
524,82	114,69
524,88	178,17
524,94	67,58
525,00	131,07
525,07	153,60
525,13	-6,14
525,19	131,07
525,25	139,26
525,32	67,58
525,38	190,46
525,44	-6,14
525,50	90,11
525,57	75,77
525,63	45,06
525,69	-38,91
525,75	153,60
525,82	163,84
525,88	16,38
525,94	67,58
526,00	-14,34
526,07	49,15
526,13	133,12
526,19	-57,34
526,25	8,19
526,31	77,82
526,38	94,21
526,44	77,82
526,50	104,45
526,56	112,64
526,63	30,72
526,69	147,45
526,75	43,01
526,81	65,54
526,87	55,30
526,94	147,45
527,00	178,17
527,06	51,20
527,12	20,48
527,19	63,49
527,25	65,53
527,31	-8,19
527,37	8,19
527,43	24,58
527,50	-16,38
527,56	-2,05
527,62	-14,34
527,68	124,93
527,75	69,63
527,81	6,14
527,87	-6,14
527,93	151,55
527,99	2,05
528,06	18,43
528,12	102,40
528,18	6,14
528,24	34,82
528,30	-10,24
528,37	67,58
528,43	10,24
528,49	120,83
528,55	47,10
528,61	24,58
528,68	145,41
528,74	106,49
528,80	63,49
528,86	116,73
528,92	14,34
528,99	47,10
529,05	47,10
529,11	61,44
529,17	-51,20
529,23	-36,86
529,29	57,34
529,36	141,31
529,42	100,35
529,48	-8,19
529,54	22,53
529,60	34,82
529,67	124,93
529,73	124,93
529,79	73,73
529,85	-45,06
529,91	-8,19
529,98	-20,48
530,04	22,53
530,10	30,72
530,16	-22,53
530,22	-28,67
530,28	-73,73
530,35	6,14
530,41	-22,53
530,47	129,02
530,53	30,72
530,59	145,41
530,65	-22,53
530,72	-57,34
530,78	147,45
530,84	157,69
530,90	26,62
530,96	61,44
531,02	65,53
531,09	12,29
531,15	-32,77
531,21	-12,29
531,27	120,83
531,33	40,96
531,39	28,67
531,46	96,25
531,52	-63,49
531,58	47,10
531,64	-55,30
531,70	14,34
531,76	-4,10
531,83	-8,19
531,89	-14,34
531,95	28,67
532,01	24,58
532,07	79,87
532,13	122,88
532,19	53,25
532,26	2,05
532,32	145,41
532,38	-71,68
532,44	-34,82
532,50	75,77
532,56	141,31
532,63	86,01
532,69	40,96
532,75	24,58
532,81	36,86
532,87	51,20
532,93	-22,53
532,99	83,97
533,06	32,77
533,12	73,73
533,18	88,06
533,24	198,65
533,30	8,19
533,36	55,30
533,42	-51,20
533,48	116,73
533,55	88,06
533,61	63,49
533,67	86,01
533,73	61,44
533,79	32,77
533,85	10,24
533,91	151,55
533,98	57,34
534,04	86,01
534,10	-53,25
534,16	65,53
534,22	90,11
534,28	114,69
534,34	-40,96
534,40	67,58
534,47	114,69
534,53	157,69
534,59	51,20
534,65	-34,82
534,71	8,19
534,77	122,88
534,83	12,29
534,89	96,25
534,95	-12,29
535,02	20,48
535,08	122,88
535,14	133,12
535,20	49,15
535,26	51,20
535,32	88,06
535,38	-14,34
535,44	118,78
535,50	10,24
535,57	129,02
535,63	88,06
535,69	100,35
535,75	120,83
535,81	120,83
535,87	22,53
535,93	88,06
535,99	176,13
536,05	110,59
536,11	100,35
536,18	77,82
536,24	67,58
536,30	145,41
536,36	59,39
536,42	126,97
536,48	34,82
536,54	51,20
536,60	188,41
536,66	24,58
536,72	-55,30
536,79	176,13
536,85	217,08
536,91	20,48
536,97	264,19
537,03	-8,19
537,09	159,74
537,15	131,07
537,21	126,97
537,27	131,07
537,33	104,45
537,39	208,89
537,45	120,83
537,52	110,59
537,58	276,48
537,64	131,07
537,70	186,37
537,76	106,49
537,82	266,24
537,88	299,00
537,94	6,14
538,00	59,39
538,06	178,17
538,12	239,61
538,18	77,82
538,24	202,75
538,31	335,87
538,37	204,80
538,43	163,84
538,49	212,99
538,55	233,47
538,61	241,66
538,67	237,56
538,73	149,50
538,79	307,20
538,85	372,73
538,91	448,51
538,97	417,79
539,03	372,73
539,09	561,14
539,15	718,84
539,21	708,60
539,28	1134,57
539,34	1304,56
539,40	1726,44
539,46	2015,20
539,52	2674,65
539,58	3903,43
539,64	5205,94
539,70	6621,08
539,76	8841,08
539,82	11411,28
539,88	13309,75
539,94	15177,50
540,00	18980,57
540,06	21475,00
540,12	24295,05
540,18	25396,86
540,24	29591,10
540,30	32869,90
540,36	34414,07
540,42	34227,70
540,49	35485,15
540,55	37000,65
540,61	38274,49
540,67	39378,34
540,73	41526,66
540,79	43572,58
540,85	43611,49
540,91	43935,07
540,97	39542,18
541,03	38962,61
541,09	38919,60
541,15	39785,89
541,21	41708,93
541,27	42141,05
541,33	42782,07
541,39	45088,08
541,45	44176,73
541,51	44092,77
541,57	43779,43
541,63	40127,90
541,69	38473,14
541,75	36558,29
541,81	39531,94
541,87	39806,37
541,93	40811,92
541,99	40363,42
542,05	40840,59
542,11	41751,94
542,17	42546,55
542,23	41319,82
542,29	40514,97
542,35	41508,23
542,41	43003,25
542,47	44399,96
542,53	42927,47
542,59	40803,73
542,65	38712,75
542,71	39226,79
542,77	41450,89
542,83	42734,96
542,89	42431,86
542,95	40019,36
543,01	40764,82
543,07	44674,39
543,13	43967,84
543,19	40355,22
543,25	42782,07
543,31	43767,14
543,37	41022,86
543,43	41919,87
543,49	42767,73
543,55	41377,16
543,61	40705,43
543,67	42321,27
543,73	46791,99
543,79	45469,00
543,85	43500,90
543,91	40201,63
543,97	40906,13
544,03	41983,36
544,09	43279,72
544,15	40478,10
544,21	38337,98
544,27	39409,06
544,33	39243,18
544,39	37776,83
544,45	39581,09
544,51	40996,24
544,57	41377,16
544,63	42872,18
544,69	43832,68
544,75	41354,63
544,81	38837,68
544,87	38790,58
544,93	38804,91
544,99	39716,26
545,05	44395,87
545,11	45258,06
545,17	43490,66
545,23	43216,24
545,29	42132,86
545,35	39089,58
545,41	42356,09
545,47	42911,09
545,53	40162,72
545,59	40002,97
545,65	40164,76
545,71	37313,99
545,77	37553,60
545,83	38452,66
545,89	40998,29
545,95	40471,96
546,01	41080,21
546,07	41061,77
546,13	39609,76
546,19	38385,08
546,25	40281,50
546,31	41809,28
546,37	45280,59
546,42	45284,68
546,48	42026,37
546,54	41244,04
546,60	44025,18
546,66	43928,93
546,72	40654,23
546,78	40119,71
546,84	41375,11
546,90	40416,66
546,96	37545,41
547,02	38411,70
547,08	39679,39
547,14	37369,29
547,20	39824,80
547,26	45188,43
547,32	43206,00
547,38	40361,37
547,44	40314,26
547,50	39871,90
547,56	37856,70
547,62	38786,48
547,67	39259,56
547,73	39693,73
547,79	40934,80
547,85	40215,96
547,91	39615,91
547,97	40416,66
548,03	43042,16
548,09	43529,58
548,15	43263,34
548,21	42675,57
548,27	39984,54
548,33	40033,69
548,39	39497,13
548,45	38176,19
548,51	36148,70
548,56	37551,55
548,62	40355,22
548,68	41962,88
548,74	43761,00
548,80	44254,56
548,86	42067,33
548,92	41631,11
548,98	42573,17
549,04	41241,99
549,10	41659,78
549,16	41145,74
549,22	41725,32
549,28	44049,76
549,34	42796,40
549,39	39703,97
549,45	38139,32
549,51	36664,78
549,57	40334,74
549,63	41645,44
549,69	38354,36
549,75	38016,44
549,81	40052,12
549,87	40648,08
549,93	38258,10
549,99	37477,83
550,04	39746,98
550,10	40562,07
550,16	39409,06
550,22	40398,23
550,28	40895,89
550,34	42927,47
550,40	42003,84
550,46	40648,08
550,52	37627,33
550,58	37707,20
550,64	39517,60
550,69	39288,23
550,75	39732,64
550,81	43621,73
550,87	45878,60
550,93	42816,88
550,99	43744,61
551,05	45655,37
551,11	42886,51
551,17	41311,63
551,23	43990,37
551,28	46742,84
551,34	43212,14
551,40	40916,37
551,46	40447,38
551,52	39613,86
551,58	37481,92
551,64	38591,92
551,70	39849,38
551,76	40678,80
551,81	42216,83
551,87	42581,37
551,93	41745,80
551,99	41502,09
552,05	40355,22
552,11	39364,01
552,17	39447,97
552,23	40662,42
552,28	44510,55
552,34	44596,57
552,40	42841,46
552,46	41287,05
552,52	39685,54
552,58	37770,69
552,64	39196,07
552,70	40234,39
552,75	40521,11
552,81	42876,27
552,87	42112,38
552,93	41727,36
552,99	40635,80
553,05	38854,06
553,11	39624,10
553,17	43029,87
553,22	44510,55
553,28	42915,19
553,34	38706,61
553,40	35880,41
553,46	35786,21
553,52	37209,54
553,58	39812,51
553,63	41930,11
553,69	43435,37
553,75	42511,74
553,81	42784,12
553,87	42069,37
553,93	39628,20
553,99	42657,14
554,04	44281,18
554,10	43582,82
554,16	42743,16
554,22	42241,40
554,28	40529,30
554,34	43060,59
554,40	42968,43
554,45	42956,14
554,51	42071,42
554,57	41266,57
554,63	41004,43
554,69	40803,73
554,75	39234,99
554,80	38256,06
554,86	39658,91
554,92	40697,24
554,98	38139,32
555,04	40619,41
555,10	42390,91
555,16	42179,96
555,21	41072,01
555,27	39022,00
555,33	38933,93
555,39	41383,30
555,45	42438,01
555,51	43988,32
555,56	40615,32
555,62	38741,42
555,68	40054,17
555,74	41917,82
555,80	40326,55
555,86	37830,08
555,91	37975,48
555,97	40607,12
556,03	43679,08
556,09	41600,39
556,15	40363,42
556,20	38593,97
556,26	40500,63
556,32	40449,43
556,38	43058,54
556,44	39470,50
556,50	36486,61
556,55	37146,06
556,61	39470,50
556,67	41883,01
556,73	41870,72
556,79	39105,96
556,84	38297,02
556,90	41102,73
556,96	42536,31
557,02	39847,33
557,08	37596,61
557,14	38788,53
557,19	41715,08
557,25	42446,20
557,31	40687,00
557,37	42425,72
557,43	41823,62
557,48	40447,38
557,54	40998,29
557,60	40439,19
557,66	40412,57
557,72	41106,83
557,77	40531,35
557,83	41053,58
557,89	38776,24
557,95	36994,51
558,01	37447,11
558,06	36873,68
558,12	36414,93
558,18	37283,27
558,24	36685,26
558,30	37021,13
558,35	40209,82
558,41	43443,56
558,47	41991,55
558,53	40443,29
558,59	37879,23
558,64	38331,83
558,70	36085,21
558,76	36136,41
558,82	38559,16
558,88	39052,72
558,93	39267,75
558,99	41158,03
559,05	41606,53
559,11	41088,40
559,16	39034,28
559,22	39329,19
559,28	37971,39
559,34	38550,96
559,40	40205,72
559,45	39503,27
559,51	40015,26
559,57	38780,34
559,63	40850,83
559,68	40699,28
559,74	39447,97
559,80	37635,52
559,86	38102,46
559,92	37250,50
559,97	37617,09
560,03	39234,99
560,09	38188,47
560,15	41424,26
560,20	41899,39
560,26	38641,07
560,32	38364,60
560,38	39112,11
560,43	42067,33
560,49	41209,23
560,55	39744,93
560,61	37625,28
560,66	37154,25
560,72	36996,56
560,78	38092,22
560,84	37828,03
560,90	39896,48
560,95	39925,15
561,01	39263,66
561,07	40717,71
561,13	39296,42
561,18	37311,94
561,24	38538,68
561,30	39382,44
561,36	39746,98
561,41	37770,69
561,47	36656,59
561,53	36595,15
561,59	34913,77
561,64	35616,22
561,70	37516,74
561,76	39286,18
561,82	42028,41
561,87	40711,57
561,93	37148,11
561,99	37121,48
562,05	37072,33
562,10	41295,24
562,16	43973,98
562,22	41190,80
562,27	39390,63
562,33	38905,26
562,39	37273,03
562,45	35448,29
562,50	35216,87
562,56	36470,23
562,62	38127,03
562,68	41434,50
562,73	40537,49
562,79	37326,28
562,85	37416,39
562,91	35605,98
562,96	37234,12
563,02	39470,50
563,08	38907,31
563,13	39370,15
563,19	41670,02
563,25	40635,80
563,31	38876,59
563,36	37264,84
563,42	37043,66
563,48	35769,82
563,53	36748,75
563,59	37164,49
563,65	38829,49
563,71	38462,90
563,76	39970,21
563,82	41344,39
563,88	40140,19
563,94	36392,40
563,99	35677,66
564,05	37531,08
564,11	38147,51
564,16	37701,06
564,22	39269,80
564,28	40879,50
564,33	39544,23
564,39	37057,99
564,45	36152,79
564,51	36287,96
564,56	38864,30
564,62	38835,63
564,68	39499,17
564,73	40236,44
564,79	37893,57
564,85	40310,17
564,91	38012,35
564,96	36883,92
565,02	36220,38
565,08	37457,35
565,13	36470,23
565,19	36763,09
565,25	38350,26
565,30	38172,09
565,36	38905,26
565,42	38546,87
565,47	38434,23
565,53	37928,38
565,59	35280,36
565,65	33754,62
565,70	37035,47
565,76	37301,70
565,82	35984,86
565,87	35913,18
565,93	36589,01
565,99	33893,88
566,04	33902,07
566,10	35237,35
566,16	36691,41
566,21	37230,02
566,27	36627,92
566,33	35941,85
566,38	35354,08
566,44	36992,46
566,50	38653,36
566,55	40885,65
566,61	38671,79
566,67	36142,55
566,73	35849,69
566,78	37477,83
566,84	36234,71
566,90	34891,24
566,95	35098,09
567,01	36265,43
567,07	36251,09
567,12	36982,22
567,18	34369,01
567,24	32130,58
567,29	32347,67
567,35	35093,99
567,41	37500,36
567,46	38002,11
567,52	38991,28
567,58	36742,61
567,63	36873,68
567,69	38698,42
567,75	38022,59
567,80	36916,68
567,86	39062,96
567,91	40865,17
567,97	38950,32
568,03	39232,94
568,08	37215,69
568,14	35796,45
568,20	36376,02
568,25	35696,10
568,31	34536,94
568,37	36648,40
568,42	38329,78
568,48	38333,88
568,54	38153,66
568,59	38335,93
568,65	37490,12
568,71	35356,13
568,76	35767,77
568,82	38294,97
568,88	40254,87
568,93	40101,28
568,99	41827,71
569,04	41717,12
569,10	36709,84
569,16	32716,30
569,21	33818,11
569,27	35413,48
569,33	34913,77
569,38	37400,01
569,44	37705,15
569,50	35935,71
569,55	36511,19
569,61	37248,46
569,66	38809,01
569,72	36742,61
569,78	36036,06
569,83	35872,22
569,89	39128,49
569,95	40822,16
570,00	38297,02
570,06	36038,11
570,11	35192,30
570,17	34090,49
570,23	34334,20
570,28	35372,52
570,34	38839,73
570,40	39986,59
570,45	39232,94
570,51	37410,25
570,56	36095,45
570,62	36959,69
570,68	38536,63
570,73	39585,19
570,79	37494,21
570,85	34756,08
570,90	34364,92
570,96	36218,33
571,01	35995,10
571,07	35319,27
571,13	36197,85
571,18	36617,68
571,24	35913,18
571,29	37154,25
571,35	39951,77
571,41	39890,34
571,46	39329,19
571,52	36693,46
571,57	33517,06
571,63	34004,47
571,69	36376,02
571,74	39284,14
571,80	37965,24
571,85	36459,99
571,91	33271,30
571,97	35653,09
572,02	38538,68
572,08	39716,26
572,13	39906,72
572,19	37369,29
572,25	34168,31
572,30	33365,51
572,36	36595,15
572,41	39321,00
572,47	35747,29
572,53	32792,08
572,58	34000,38
572,64	36277,72
572,69	37230,02
572,75	36828,62
572,80	38376,89
572,86	38432,18
572,92	36771,28
572,97	35585,50
573,03	33025,54
573,08	32069,14
573,14	33646,08
573,20	35263,97
573,25	35577,31
573,31	35196,39
573,36	36056,54
573,42	36290,01
573,47	35669,47
573,53	34405,88
573,59	36214,23
573,64	36130,26
573,70	33277,44
573,75	33099,27
573,81	36220,38
573,86	39251,37
573,92	36812,24
573,98	33771,00
574,03	35024,36
574,09	38104,51
574,14	38370,74
574,20	34207,22
574,25	31331,87
574,31	33289,73
574,37	35122,66
574,42	35001,83
574,48	35595,74
574,53	36466,13
574,59	36201,94
574,64	34608,62
574,70	34749,93
574,75	35900,89
574,81	36447,70
574,87	35882,46
574,92	35524,07
574,98	38127,03
575,03	37615,04
575,09	35786,21
575,14	33992,19
575,20	31864,35
575,25	33173,00
575,31	33281,54
575,37	35532,26
575,42	35415,52
575,48	33048,07
575,53	30557,74
575,59	32704,01
575,64	35739,10
575,70	34835,95
575,75	34491,89
575,81	34004,47
575,86	34424,31
575,92	34872,81
575,98	37197,26
576,03	37860,80
576,09	35880,41
576,14	33730,05
576,20	32712,20
576,25	33709,57
576,31	33097,22
576,36	34057,72
576,42	32960,01
576,47	34811,37
576,53	35145,19
576,58	33271,30
576,64	35687,90
576,69	36376,02
576,75	34827,76
576,81	33619,46
576,86	32603,66
576,92	32849,42
576,97	33787,39
577,03	35155,43
577,08	39040,43
577,14	39450,02
577,19	38184,38
577,25	34242,04
577,30	31821,34
577,36	30537,26
577,41	32222,74
577,47	33213,96
577,52	33965,56
577,58	34137,59
577,63	34653,68
577,69	34528,75
577,74	35098,09
577,80	36781,52
577,85	35741,15
577,91	36238,81
577,96	36101,59
578,02	35454,44
578,07	33590,78
578,13	33490,43
578,18	35651,04
578,24	32493,07
578,29	31796,76
578,35	33105,41
578,40	34307,57
578,46	33119,75
578,51	33646,08
578,57	33816,06
578,62	33043,98
578,68	32955,91
578,73	32685,58
578,79	33058,31
578,84	30195,25
578,90	30035,51
578,95	30852,65
579,01	30277,17
579,06	33111,56
579,12	33863,16
579,17	33404,42
579,23	32888,33
579,28	31938,07
579,34	32661,01
579,39	32321,04
579,45	33398,27
579,50	32589,33
579,56	32912,91
579,61	34686,45
579,67	33885,69
579,72	32658,96
579,78	32366,10
579,83	31657,50
579,89	30776,87
579,94	31942,17
580,00	32345,62
580,05	31989,27
580,11	32607,76
580,16	33707,52
580,22	33568,26
580,27	32390,67
580,32	33986,04
580,38	35257,83
580,43	34330,10
580,49	32744,97
580,54	34817,52
580,60	37084,62
580,65	34919,92
580,71	31766,04
580,76	32232,98
580,82	33846,78
580,87	32126,49
580,93	33273,35
580,98	34088,44
581,04	34422,26
581,09	36376,02
581,14	36154,84
581,20	35282,41
581,25	35509,73
581,31	32157,21
581,36	29623,87
581,42	31135,27
581,47	32912,91
581,53	35427,81
581,58	35319,27
581,64	31919,64
581,69	32769,55
581,75	33820,16
581,80	30654,00
581,85	26869,35
581,91	32689,68
581,96	34356,72
582,02	33293,83
582,07	32718,35
582,13	32433,68
582,18	33897,98
582,24	33979,90
582,29	31747,61
582,34	31483,42
582,40	30338,61
582,45	31624,73
582,51	33930,75
582,56	34391,54
582,62	32507,41
582,67	30762,54
582,73	32138,77
582,78	30490,16
582,83	30580,27
582,89	32333,33
582,94	33064,46
583,00	31108,65
583,05	30889,51
583,11	32646,67
583,16	34780,65
583,21	33095,18
583,27	30117,43
583,32	29204,03
583,38	28931,65
583,43	30316,08
583,49	31788,57
583,54	33250,82
583,59	34414,07
583,65	35900,89
583,70	36857,29
583,76	34485,75
583,81	35022,31
583,87	32847,37
583,92	31880,73
583,97	32003,61
584,03	30656,04
584,08	30084,66
584,14	30066,23
584,19	29451,84
584,24	29371,97
584,30	30686,76
584,35	30404,14
584,41	29175,36
584,46	31200,80
584,52	32095,77
584,57	31856,15
584,62	30746,15
584,68	31733,28
584,73	32595,47
584,79	33183,24
584,84	34291,19
584,89	34651,63
584,95	32904,71
585,00	30662,19
585,06	28722,76
585,11	28188,24
585,16	29789,75
585,22	30891,56
585,27	31667,74
585,33	30154,29
585,38	28780,10
585,43	30328,37
585,49	30955,05
585,54	30709,29
585,60	26852,97
585,65	27864,66
585,70	31057,45
585,76	33105,41
585,81	31997,46
585,87	32599,57
585,92	29079,11
585,97	27788,89
586,03	30293,55
586,08	33928,70
586,13	34403,83
586,19	33166,85
586,24	35501,54
586,30	32552,46
586,35	30838,31
586,40	30635,56
586,46	30613,04
586,51	31786,52
586,57	31073,83
586,62	32468,50
586,67	30117,43
586,73	28907,08
586,78	29982,26
586,83	29955,64
586,89	30680,62
586,94	29933,11
587,00	29597,24
587,05	30381,62
587,10	33086,98
587,16	33441,28
587,21	31440,42
587,26	29881,91
587,32	30449,20
587,37	31061,54
587,42	30582,32
587,48	31862,30
587,53	33297,92
587,59	31223,33
587,64	28261,97
587,69	29728,31
587,75	33248,77
587,80	33162,76
587,85	32818,70
587,91	31522,34
587,96	31022,63
588,01	32255,51
588,07	32665,10
588,12	32853,51
588,17	31491,62
588,23	27960,92
588,28	27729,50
588,34	30424,62
588,39	31993,37
588,44	30055,99
588,50	29513,28
588,55	28335,70
588,60	27962,97
588,66	27899,48
588,71	29529,66
588,76	30893,61
588,82	31649,31
588,87	31723,04
588,92	30996,01
588,98	30508,59
589,03	31260,20
589,08	30682,67
589,14	30561,84
589,19	32290,32
589,24	32091,67
589,30	31069,73
589,35	30287,41
589,40	30334,51
589,46	29883,96
589,51	29615,68
589,56	29386,30
589,62	29816,38
589,67	29953,59
589,72	27246,18
589,78	29361,73
589,83	31872,54
589,88	29681,21
589,94	29920,82
589,99	32259,60
590,04	32130,58
590,10	31782,43
590,15	29824,57
590,20	29957,69
590,26	30948,90
590,31	31393,31
590,36	30277,17
590,42	30318,13
590,47	29339,20
590,52	28569,16
590,58	27606,62
590,63	27899,48
590,68	27776,60
590,74	29513,28
590,79	30121,52
590,84	31342,11
590,89	31215,14
590,95	30527,02
591,00	28282,45
591,05	27383,39
591,11	28239,44
591,16	28550,73
591,21	26529,39
591,27	27516,51
591,32	26400,37
591,37	27240,03
591,43	27338,33
591,48	27897,43
591,53	28280,40
591,58	27784,79
591,64	26113,65
591,69	26019,44
591,74	27022,95
591,80	27549,28
591,85	29574,72
591,90	28784,20
591,96	28585,55
592,01	27545,18
592,06	27321,95
592,11	28083,80
592,17	27762,26
592,22	27612,76
592,27	26371,69
592,33	26500,72
592,38	26906,21
592,43	28532,30
592,48	28331,60
592,54	28178,00
592,59	29744,70
592,64	28466,77
592,70	27457,12
592,75	29187,65
592,80	29986,36
592,85	28427,85
592,91	27139,68
592,96	28208,72
593,01	29595,20
593,07	32038,42
593,12	31106,60
593,17	29214,27
593,22	28948,04
593,28	30045,75
593,33	30219,83
593,38	30379,57
593,44	28073,56
593,49	27029,09
593,54	27778,65
593,59	28438,09
593,65	26783,34
593,70	26672,75
593,75	27289,18
593,80	27731,54
593,86	26490,48
593,91	27864,66
593,96	28819,02
594,01	30400,05
594,07	28446,29
594,12	27981,40
594,17	28952,13
594,23	29673,02
594,28	28528,20
594,33	26881,64
594,38	25316,99
594,44	24974,98
594,49	25859,70
594,54	27911,77
594,59	28063,32
594,65	27666,01
594,70	29183,55
594,75	29818,42
594,80	31508,00
594,86	28378,70
594,91	25169,54
594,96	25902,71
595,01	26773,10
595,07	27557,47
595,12	25747,06
595,17	25486,97
595,22	28188,24
595,28	29517,37
595,33	28771,91
595,38	26459,76
595,43	25128,58
595,49	25050,75
595,54	26902,12
595,59	27950,68
595,64	28597,84
595,69	27031,14
595,75	27528,80
595,80	27297,38
595,85	27731,54
595,90	28122,71
595,96	28358,22
596,01	27543,13
596,06	26242,67
596,11	25065,09
596,17	25882,23
596,22	28081,75
596,27	26996,32
596,32	25615,99
596,38	25077,38
596,43	26414,70
596,48	26486,38
596,53	28233,30
596,58	27684,44
596,64	27711,07
596,69	27625,05
596,74	27821,66
596,79	28143,19
596,85	27825,75
596,90	27186,79
596,95	25865,85
597,00	26938,98
597,05	26994,28
597,11	24419,98
597,16	24178,32
597,21	25204,35
597,26	24053,39
597,31	25253,50
597,37	27999,83
597,42	26060,40
597,47	22963,87
597,52	23848,60
597,57	24301,20
597,63	25722,49
597,68	26541,68
597,73	24368,78
597,78	24061,58
597,84	24553,10
597,89	25888,37
597,94	27833,94
597,99	29032,00
598,04	28030,55
598,10	26123,89
598,15	25273,98
598,20	25443,96
598,25	23352,99
598,30	24284,81
598,36	26570,35
598,41	26787,43
598,46	26056,31
598,51	25902,71
598,56	25208,45
598,61	23977,62
598,67	23953,04
598,72	25540,22
598,77	26914,41
598,82	25716,34
598,87	25200,26
598,93	25740,92
598,98	26883,69
599,03	25292,41
599,08	26082,93
599,13	27926,10
599,19	28384,85
599,24	27522,65
599,29	27620,95
599,34	26308,21
599,39	24958,60
599,44	24381,07
599,50	23393,95
599,55	24180,37
599,60	24551,05
599,65	29365,82
599,70	29802,04
599,75	28585,55
599,81	26179,18
599,86	25933,43
599,91	26480,24
599,96	26805,86
600,01	25927,28
600,07	27651,67
600,12	27237,98
600,17	26365,55
600,22	25945,72
600,27	25480,83
600,32	25366,14
600,38	26494,57
600,43	28421,71
600,48	28460,62
600,53	28976,71
600,58	27348,57
600,63	26996,32
600,68	26981,99
600,74	25185,92
600,79	24661,64
600,84	24577,67
600,89	25779,83
600,94	26041,97
600,99	25898,61
601,05	26730,09
601,10	26379,89
601,15	29634,11
601,20	27623,00
601,25	25153,15
601,30	25032,32
601,35	23127,71
601,41	23488,15
601,46	23391,90
601,51	22908,58
601,56	24655,50
601,61	27111,01
601,66	26189,42
601,71	24020,63
601,77	24514,19
601,82	26470,00
601,87	26832,49
601,92	28087,89
601,97	26959,46
602,02	23670,42
602,07	23058,08
602,13	24307,34
602,18	24338,06
602,23	24870,53
602,28	24747,65
602,33	27117,15
602,38	26908,26
602,43	26125,94
602,48	24856,20
602,54	25046,66
602,59	25312,89
602,64	24972,93
602,69	24647,30
602,74	23320,22
602,79	24596,10
602,84	25298,56
602,89	24102,54
602,95	24661,64
603,00	25396,86
603,05	25548,41
603,10	24624,78
603,15	24397,45
603,20	25566,84
603,25	26408,56
603,30	25603,71
603,36	25214,59
603,41	24569,48
603,46	24473,23
603,51	25579,13
603,56	25306,75
603,61	25216,64
603,66	26859,11
603,71	27184,74
603,76	25765,49
603,82	27162,21
603,87	26912,36
603,92	24170,13
603,97	22234,80
604,02	23875,22
604,07	26099,31
604,12	26742,38
604,17	24872,58
604,22	24774,28
604,28	25093,76
604,33	23750,29
604,38	23154,33
604,43	21407,42
604,48	20393,67
604,53	21407,42
604,58	21139,13
604,63	21520,06
604,68	20881,09
604,73	22007,47
604,78	23627,42
604,84	23928,47
604,89	24178,32
604,94	23254,69
604,99	23221,92
605,04	22609,57
605,09	21212,86
605,14	20610,76
605,19	21534,39
605,24	21888,69
605,29	22924,96
605,34	22716,07
605,40	23742,10
605,45	23930,51
605,50	22722,21
605,55	23180,96
605,60	22810,28
605,65	22480,55
605,70	22503,08
605,75	23248,54
605,80	21327,55
605,85	21667,51
605,90	22410,92
605,95	23156,38
606,00	22640,29
606,06	22802,08
606,11	21569,21
606,16	20549,32
606,21	20883,14
606,26	22281,90
606,31	22628,01
606,36	23226,01
606,41	23445,15
606,46	24028,82
606,51	25259,65
606,56	24557,19
606,61	24057,49
606,66	23291,55
606,71	23307,93
606,76	23475,87
606,81	22208,17
606,87	22001,33
606,92	23041,70
606,97	24759,94
607,02	23709,33
607,07	22421,16
607,12	20516,55
607,17	22310,57
607,22	23074,46
607,27	22652,58
607,32	24194,70
607,37	25984,63
607,42	26009,20
607,47	22517,42
607,52	23176,86
607,57	21888,69
607,62	22290,09
607,67	22793,89
607,72	23305,88
607,77	23262,88
607,83	23303,84
607,88	22679,21
607,93	21444,28
607,98	21323,45
608,03	22286,00
608,08	23176,86
608,13	21354,17
608,18	22441,64
608,23	22165,17
608,28	21917,36
608,33	23242,40
608,38	25142,91
608,43	25808,50
608,48	24020,63
608,53	22138,54
608,58	21350,07
608,63	22281,90
608,68	22595,24
608,73	21905,07
608,78	22662,82
608,83	23320,22
608,88	23285,40
608,93	22722,21
608,98	21577,40
609,03	21229,24
609,08	21329,59
609,13	19920,59
609,18	19691,22
609,23	21601,97
609,28	22384,30
609,33	22689,45
609,38	23344,80
609,43	23273,12
609,48	21683,89
609,53	22744,74
609,58	24145,55
609,63	23639,70
609,69	21169,85
609,74	21038,78
609,79	22924,96
609,84	22955,68
609,89	23486,11
609,94	23228,06
609,99	20651,72
610,04	19361,50
610,09	21464,76
610,14	22548,14
610,19	21900,98
610,24	22079,15
610,29	22384,30
610,34	22564,52
610,39	21798,58
610,44	21653,17
610,49	21616,31
610,54	22838,95
610,59	22789,80
610,64	22079,15
610,69	22423,21
610,74	21669,56
610,79	21190,33
610,84	23430,81
610,89	23144,09
610,94	21438,14
610,99	21532,34
611,04	21626,55
611,09	20833,99
611,14	21051,07
611,18	20879,04
611,23	20717,25
611,28	20735,68
611,33	19009,25
611,38	19183,32
611,43	21819,06
611,48	23766,68
611,53	23328,41
611,58	22429,35
611,63	21206,72
611,68	20750,02
611,73	20608,71
611,78	22564,52
611,83	24108,69
611,88	22232,75
611,93	20385,48
611,98	21339,83
612,03	20539,08
612,08	19535,57
612,13	19203,80
612,18	19298,01
612,23	19062,49
612,28	20115,15
612,33	21776,05
612,38	22470,31
612,43	20793,03
612,48	19457,75
612,53	19697,36
612,58	20565,70
612,63	21675,70
612,68	21558,97
612,73	20973,25
612,78	20076,24
612,83	20412,10
612,88	20483,78
612,93	19848,91
612,97	20068,05
613,02	20637,38
613,07	19551,96
613,12	18566,88
613,17	18274,03
613,22	19052,25
613,27	19619,54
613,32	21184,19
613,37	22904,48
613,42	24012,43
613,47	21798,58
613,52	20817,60
613,57	20006,61
613,62	19701,46
613,67	20948,67
613,72	21526,20
613,77	20430,54
613,82	20195,02
613,87	21829,30
613,92	20711,11
613,96	19486,42
614,01	19939,02
614,06	19611,35
614,11	19533,53
614,16	19408,60
614,21	19162,84
614,26	19803,86
614,31	18337,51
614,36	18802,40
614,41	20760,26
614,46	21235,39
614,51	20739,78
614,56	19502,81
614,61	19146,46
614,66	19060,45
614,70	18165,48
614,75	18683,62
614,80	20084,43
614,85	20301,51
614,90	21751,48
614,95	21487,29
615,00	20221,64
615,05	19889,87
615,10	19590,87
615,15	18652,90
615,20	17837,81
615,25	18153,20
615,30	18433,77
615,34	20670,15
615,39	19582,68
615,44	18679,52
615,49	18718,43
615,54	19803,86
615,59	21731,00
615,64	22681,25
615,69	21622,45
615,74	20825,79
615,79	20139,72
615,84	19535,57
615,89	18339,56
615,93	18048,75
615,98	18310,89
616,03	19242,71
616,08	20532,93
616,13	19848,91
616,18	18691,81
616,23	17997,55
616,28	17688,31
616,33	17458,93
616,38	19564,25
616,42	19844,82
616,47	19850,96
616,52	21794,48
616,57	21601,97
616,62	21145,28
616,67	20618,95
616,72	19840,72
616,77	18478,82
616,82	18892,51
616,87	19850,96
616,91	19211,99
616,96	17671,92
617,01	17469,17
617,06	18321,13
617,11	19805,91
617,16	20786,88
617,21	20336,33
617,26	21176,00
617,31	22353,58
617,35	21382,84
617,40	19762,90
617,45	18984,67
617,50	20332,23
617,55	20793,03
617,60	20238,03
617,65	19676,88
617,70	18228,97
617,74	18644,71
617,79	19463,90
617,84	18982,62
617,89	19093,21
617,94	19390,17
617,99	19396,31
618,04	20928,19
618,09	21425,85
618,13	20516,55
618,18	19109,60
618,23	17960,69
618,28	18986,72
618,33	19351,26
618,38	20219,60
618,43	20772,55
618,48	20981,44
618,52	19545,81
618,57	19721,94
618,62	19304,15
618,67	18185,96
618,72	18116,33
618,77	19867,34
618,82	20133,58
618,86	19979,98
618,91	19406,55
618,96	19619,54
619,01	19478,23
619,06	18810,59
619,11	19883,73
619,16	20043,47
619,20	19201,75
619,25	17862,38
619,30	18878,18
619,35	19265,24
619,40	19470,04
619,45	18738,91
619,49	19328,73
619,54	18708,19
619,59	18159,34
619,64	16842,50
619,69	18216,68
619,74	18912,99
619,79	19877,58
619,83	19467,99
619,88	17403,64
619,93	16604,93
619,98	16850,69
620,03	17682,16
620,08	18063,08
620,12	19494,61
620,17	19867,34
620,22	19910,35
620,27	19336,92
620,32	19482,33
620,37	18005,74
620,41	17579,76
620,46	17866,48
620,51	18652,90
620,56	18790,11
620,61	18050,80
620,66	17297,14
620,70	18110,19
620,75	19037,92
620,80	17936,11
620,85	16432,90
620,90	16508,68
620,95	17688,31
620,99	18722,53
621,04	20180,68
621,09	20557,51
621,14	18732,77
621,19	18325,22
621,23	18659,04
621,28	18915,04
621,33	17942,25
621,38	18052,84
621,43	17911,53
621,48	17592,05
621,52	18044,65
621,57	19144,41
621,62	21221,05
621,67	21448,38
621,72	21192,38
621,76	18804,45
621,81	18505,45
621,86	18296,55
621,91	16926,46
621,96	17891,06
622,00	19265,24
622,05	18335,46
622,10	18116,33
622,15	18982,62
622,20	18333,42
622,24	17319,67
622,29	16471,81
622,34	15712,02
622,39	15210,26
622,44	15728,40
622,48	17716,98
622,53	19115,74
622,58	19375,83
622,63	19773,14
622,68	19498,71
622,72	19042,01
622,77	17979,12
622,82	16662,27
622,87	16910,08
622,92	18116,33
622,96	18452,20
623,01	17770,22
623,06	17168,12
623,11	16490,24
623,15	16832,26
623,20	17229,56
623,25	18040,56
623,30	20121,29
623,35	18831,07
623,39	17811,18
623,44	16963,33
623,49	16219,91
623,54	15925,00
623,58	15232,79
623,63	15380,25
623,68	16164,62
623,73	17972,97
623,78	18319,08
623,82	18482,92
623,87	18089,71
623,92	18167,53
623,97	18689,76
624,01	17186,55
624,06	16588,55
624,11	16486,15
624,16	14923,55
624,21	15431,44
624,25	17194,75
624,30	17452,79
624,35	16912,13
624,40	17663,73
624,44	17932,01
624,49	17805,04
624,54	16580,36
624,59	16535,30
624,63	16908,03
624,68	17080,06
624,73	17563,38
624,78	18433,77
624,82	17790,70
624,87	16762,62
624,92	17032,96
624,97	18011,89
625,01	17362,68
625,06	17383,16
625,11	17309,43
625,16	17084,16
625,20	17876,72
625,25	16776,96
625,30	16957,18
625,35	16971,52
625,39	16439,05
625,44	15568,66
625,49	14759,71
625,54	14274,34
625,58	14714,66
625,63	15406,87
625,68	16381,70
625,73	17661,68
625,77	17968,88
625,82	16592,64
625,87	15931,15
625,92	15200,02
625,96	16811,78
626,01	15957,77
626,06	15476,50
626,10	14692,13
626,15	15068,95
626,20	15083,29
626,25	15013,66
626,29	14782,24
626,34	14884,64
626,39	14931,74
626,44	14792,48
626,48	14135,08
626,53	14614,30
626,58	15052,57
626,62	15546,13
626,67	15601,43
626,72	16002,83
626,77	16187,14
626,81	16074,51
626,86	15744,78
626,91	14520,10
626,96	14083,88
627,00	14554,91
627,05	15085,34
627,10	15316,76
627,14	14800,67
627,19	14890,78
627,24	15017,75
627,29	14673,70
627,33	14497,57
627,38	14907,16
627,43	14481,19
627,47	13793,07
627,52	13924,14
627,57	14876,44
627,62	15632,15
627,66	16037,64
627,71	15324,95
627,76	14604,07
627,80	14911,26
627,85	15562,51
627,90	14927,64
627,94	13731,63
627,99	13795,12
628,04	14475,04
628,09	14722,85
628,13	14303,01
628,18	14886,68
628,23	14958,36
628,27	14554,91
628,32	14196,52
628,37	13836,08
628,41	13401,91
628,46	13303,60
628,51	13629,23
628,55	14681,89
628,60	14896,92
628,65	15167,26
628,70	15206,17
628,74	14702,37
628,79	15603,47
628,84	16473,86
628,88	16879,36
628,93	15724,30
628,98	14004,01
629,02	13168,44
629,07	13602,61
629,12	13557,55
629,16	13727,53
629,21	15062,81
629,26	16088,84
629,30	16606,98
629,35	15890,19
629,40	14239,53
629,44	13418,29
629,49	13428,53
629,54	12904,25
629,58	13055,80
629,63	14092,07
629,68	13745,97
629,72	13928,24
629,77	14937,88
629,82	15132,44
629,86	14438,18
629,91	14880,54
629,96	14335,78
630,00	13584,18
630,05	13403,96
630,10	13391,67
630,14	12382,02
630,19	12623,68
630,24	13266,74
630,28	13707,05
630,33	14255,91
630,38	14042,92
630,42	14235,43
630,47	14042,92
630,52	14679,84
630,56	14761,76
630,61	14356,26
630,66	14163,75
630,70	13643,57
630,75	13508,40
630,80	12613,44
630,84	12613,44
630,89	12853,05
630,94	13338,42
630,98	13707,05
631,03	13852,46
631,07	13741,87
631,12	13537,07
631,17	14319,40
631,21	14202,66
631,26	13129,53
631,31	13375,28
631,35	13954,86
631,40	14319,40
631,45	14034,73
631,49	13801,26
631,54	14622,50
631,59	14886,68
631,63	14681,89
631,68	14448,42
631,72	13838,12
631,77	12664,64
631,82	12703,55
631,86	12828,48
631,91	12611,39
631,96	12398,40
632,00	12873,53
632,05	13834,03
632,09	14249,77
632,14	13909,80
632,19	13627,18
632,23	13756,21
632,28	13041,46
632,33	13416,24
632,37	13854,51
632,42	14907,16
632,46	15695,63
632,51	15492,88
632,56	15126,30
632,60	13795,12
632,65	13045,56
632,70	12764,99
632,74	14112,55
632,79	13647,66
632,83	13358,90
632,88	12742,46
632,93	12019,53
632,97	11392,85
633,02	11390,80
633,06	12347,20
633,11	12879,68
633,16	13367,09
633,20	13350,71
633,25	13182,77
633,29	13356,85
633,34	13590,32
633,39	13983,53
633,43	13156,15
633,48	12490,56
633,52	12678,97
633,57	12779,32
633,62	12859,20
633,66	13195,06
633,71	12410,69
633,75	12480,32
633,80	12203,85
633,85	12203,85
633,89	11249,49
633,94	11079,51
633,98	11634,51
634,03	11720,53
634,08	12615,49
634,12	12853,05
634,17	13946,67
634,21	14808,86
634,26	14151,46
634,31	13332,28
634,35	12558,14
634,40	12623,68
634,44	12480,32
634,49	12955,45
634,54	12035,91
634,58	11818,83
634,63	11829,07
634,67	11792,20
634,72	11554,64
634,76	11577,17
634,81	12750,65
634,86	12535,62
634,90	12463,94
634,95	12435,27
634,99	12078,92
635,04	11902,79
635,08	12996,41
635,13	14171,94
635,18	15163,16
635,22	13979,43
635,27	13680,43
635,31	12572,48
635,36	11456,34
635,40	10698,59
635,45	11136,85
635,50	12226,37
635,54	13018,94
635,59	13500,21
635,63	13092,66
635,68	12422,98
635,72	11675,47
635,77	12588,86
635,81	12787,52
635,86	12971,83
635,91	13938,48
635,95	13895,47
636,00	13004,60
636,04	12521,28
636,09	11896,65
636,13	12042,06
636,18	12316,48
636,22	12078,92
636,27	12382,02
636,32	13086,52
636,36	14139,18
636,41	13786,93
636,45	12969,79
636,50	12709,69
636,54	12445,51
636,59	11345,75
636,63	11439,95
636,68	11642,70
636,73	12533,57
636,77	13352,76
636,82	14911,26
636,86	14812,96
636,91	13162,30
636,95	11880,27
637,00	11183,96
637,04	11077,46
637,09	11423,57
637,13	11626,32
637,18	11603,79
637,22	11972,43
637,27	11659,09
637,31	11487,06
637,36	11093,85
637,41	11657,04
637,45	11951,95
637,50	11595,60
637,54	11892,55
637,59	12293,96
637,63	12701,50
637,68	13104,95
637,72	13219,64
637,77	12078,92
637,81	11140,95
637,86	11169,62
637,90	11634,51
637,95	12042,06
637,99	12461,89
638,04	12296,00
638,08	11943,75
638,13	11847,50
638,17	11691,85
638,22	11671,37
638,26	11667,28
638,31	11794,25
638,35	11177,81
638,40	11206,48
638,45	11030,36
638,49	11083,61
638,54	11614,03
638,58	11450,19
638,63	11519,82
638,67	12578,62
638,72	12420,93
638,76	12130,12
638,81	12009,29
638,85	11558,74
638,90	12652,35
638,94	13115,19
638,99	13551,41
639,03	12945,21
639,08	13082,42
639,12	13035,32
639,17	12681,02
639,21	11827,02
639,26	11708,24
639,30	10999,64
639,35	10891,10
639,39	10925,91
639,44	11208,53
639,48	11931,47
639,53	11818,83
639,57	12242,76
639,62	12334,92
639,66	12543,81
639,70	12298,05
639,75	11976,52
639,79	10921,82
639,84	10501,98
639,88	11077,46
639,93	10997,59
639,97	11145,05
640,02	11528,02
640,06	10960,73
640,11	11665,23
640,15	12341,06
640,20	12296,00
640,24	12119,88
640,29	12201,80
640,33	12613,44
640,38	12304,20
640,42	11429,71
640,47	12048,20
640,51	12400,45
640,56	12183,37
640,60	11855,69
640,65	12400,45
640,69	12736,32
640,73	12035,91
640,78	10661,73
640,82	10450,78
640,87	10196,84
640,91	10102,63
640,96	10184,55
641,00	10180,45
641,05	10588,00
641,09	10332,00
641,14	10473,31
641,18	10542,94
641,23	11212,63
641,27	11245,40
641,32	11458,39
641,36	11442,00
641,40	10772,32
641,45	10342,24
641,49	10192,74
641,54	10293,09
641,58	10229,60
641,63	10051,43
641,67	10243,94
641,72	10268,52
641,76	10725,21
641,80	11038,55
641,85	11706,19
641,89	12062,54
641,94	11366,23
641,98	10452,83
642,03	10286,95
642,07	10037,09
642,12	9781,10
642,16	9738,09
642,20	10948,44
642,25	11779,92
642,29	11755,34
642,34	11999,05
642,38	12365,64
642,43	12232,52
642,47	12160,84
642,52	11519,82
642,56	10745,69
642,60	10573,66
642,65	10303,33
642,69	9531,25
642,74	9348,98
642,78	9336,69
642,83	9959,27
642,87	10426,21
642,91	10680,16
642,96	11085,65
643,00	11910,99
643,05	11915,08
643,09	11196,25
643,14	11237,20
643,18	11265,88
643,22	11278,16
643,27	11962,19
643,31	11900,75
643,36	11190,10
643,40	10485,60
643,45	10319,71
643,49	10194,79
643,53	10289,00
643,58	10655,58
643,62	11204,44
643,67	11157,33
643,71	11319,12
643,75	11702,09
643,80	11607,89
643,84	10999,64
643,89	10796,89
643,93	10757,98
643,97	10899,29
644,02	10889,05
644,06	10796,89
644,11	10743,64
644,15	11085,65
644,19	11327,32
644,24	10755,93
644,28	10176,36
644,33	9897,83
644,37	9711,47
644,42	10307,43
644,46	10688,35
644,50	10303,33
644,55	11327,32
644,59	11667,28
644,63	11415,38
644,68	11630,41
644,72	11261,78
644,77	10606,43
644,81	9940,84
644,85	9617,26
644,90	9490,29
644,94	9807,72
644,99	10440,54
645,03	10026,86
645,07	10213,22
645,12	10379,11
645,16	10671,97
645,21	10137,45
645,25	9994,09
645,29	9779,05
645,34	9719,66
645,38	9764,72
645,42	9631,60
645,47	10131,30
645,51	10338,15
645,56	10835,80
645,60	10471,26
645,64	10014,57
645,69	10022,76
645,73	10352,48
645,77	10061,67
645,82	9723,76
645,86	9672,56
645,91	9486,19
645,95	9150,32
645,99	8904,57
646,04	9559,92
646,08	10076,01
646,12	9901,93
646,17	9295,73
646,21	9293,68
646,26	9914,22
646,30	10315,62
646,34	10272,61
646,39	9824,11
646,43	8976,25
646,47	9248,63
646,52	9549,68
646,56	9568,11
646,60	9293,68
646,65	9234,29
646,69	9256,82
646,73	9623,41
646,78	9752,43
646,82	9590,64
646,87	9023,35
646,91	9119,60
646,95	9445,23
647,00	9838,44
647,04	9639,79
647,08	10336,10
647,13	10190,69
647,17	10512,22
647,21	10737,50
647,26	10745,69
647,30	11110,23
647,34	11147,09
647,39	10516,32
647,43	10235,75
647,47	9932,65
647,52	9559,92
647,56	9367,41
647,60	9217,91
647,65	9004,92
647,69	8867,70
647,73	8910,71
647,78	9027,45
647,82	9885,55
647,86	9832,30
647,91	10112,87
647,95	9439,09
647,99	9508,72
648,04	9123,70
648,08	9262,96
648,12	9058,17
648,17	9422,70
648,21	9631,60
648,25	9559,92
648,30	9561,97
648,34	9289,59
648,38	9146,23
648,43	9551,73
648,47	9893,74
648,51	9398,13
648,56	8642,43
648,60	8329,09
648,64	9119,60
648,69	9889,64
648,73	9596,78
648,77	9684,84
648,82	10139,49
648,86	10631,01
648,90	10614,62
648,95	10121,06
648,99	10018,66
649,03	9383,79
649,07	9047,93
649,12	9021,30
649,16	8992,63
649,20	9412,46
649,25	8925,05
649,29	8550,27
649,33	7978,89
649,38	7982,98
649,42	7860,10
649,46	8365,95
649,51	8677,24
649,55	8826,75
649,59	8630,14
649,63	7944,07
649,68	7911,30
649,72	8105,86
649,76	8310,66
649,81	8447,87
649,85	8382,34
649,89	8494,97
649,93	9033,59
649,98	8830,84
650,02	9437,04
650,06	9779,05
650,11	9654,12
650,15	9854,83
650,19	9903,98
650,24	9887,59
650,28	9256,82
650,32	8753,02
650,36	8525,69
650,41	8636,28
650,45	8640,38
650,49	8218,50
650,54	8245,12
650,58	8288,13
650,62	7823,24
650,66	7526,29
650,71	7780,23
650,75	8165,25
650,79	8279,94
650,83	8869,75
650,88	8820,60
650,92	9004,92
650,96	8243,07
651,01	7831,43
651,05	7636,88
651,09	8294,27
651,13	8777,59
651,18	8630,14
651,22	8591,23
651,26	8877,94
651,30	8839,03
651,35	8474,49
651,39	7888,78
651,43	8517,50
651,48	8857,46
651,52	8998,77
651,56	9152,37
651,60	9174,90
651,65	8927,10
651,69	9611,12
651,73	9445,23
651,77	9006,97
651,82	8630,14
651,86	8265,60
651,90	8380,29
651,94	8345,47
651,99	8249,22
652,03	8497,02
652,07	8793,98
652,11	9109,36
652,16	9125,75
652,20	9056,12
652,24	9107,32
652,28	8992,63
652,33	8804,22
652,37	8769,40
652,41	8423,30
652,45	8413,06
652,50	8202,11
652,54	7978,89
652,58	8224,64
652,62	8216,45
652,67	8710,01
652,71	8492,93
652,75	8138,63
652,79	8148,87
652,84	8484,73
652,88	8624,00
652,92	8376,19
652,96	8492,93
653,00	8564,61
653,05	8054,66
653,09	7845,77
653,13	7475,09
653,17	7735,18
653,22	8028,04
653,26	8572,80
653,30	8777,59
653,34	8703,87
653,39	8312,71
653,43	7802,76
653,47	8109,96
653,51	8398,72
653,55	8673,15
653,60	8062,85
653,64	7896,97
653,68	7958,41
653,72	8728,44
653,77	8791,93
653,81	8122,24
653,85	7853,96
653,89	7968,65
653,93	8351,62
653,98	8122,24
654,02	8148,87
654,06	7790,47
654,10	7520,14
654,14	7456,65
654,19	7677,83
654,23	7618,44
654,27	7694,22
654,31	7628,68
654,35	7675,79
654,40	8361,86
654,44	8505,21
654,48	7962,50
654,52	7690,12
654,57	7514,00
654,61	7735,18
654,65	7622,54
654,69	7804,81
654,73	8079,24
654,78	7466,89
654,82	7016,34
654,86	6739,87
654,90	7214,99
654,94	7864,20
654,98	8200,07
655,03	7956,36
655,07	7976,84
655,11	7696,27
655,15	8042,37
655,19	7851,91
655,24	7800,71
655,28	7964,55
655,32	7884,68
655,36	8513,41
655,40	8507,26
655,45	8349,57
655,49	7839,62
655,53	7053,20
655,57	7034,77
655,61	7616,40
655,65	8615,80
655,70	9043,83
655,74	8085,38
655,78	7657,36
655,82	7851,91
655,86	7638,92
655,91	7587,72
655,95	7188,37
655,99	6584,22
656,03	6598,56
656,07	6899,61
656,11	7565,20
656,16	7671,69
656,20	7427,98
656,24	7794,57
656,28	8566,65
656,32	9060,21
656,36	8478,59
656,41	8107,91
656,45	7393,17
656,49	7655,31
656,53	7886,73
656,57	8042,37
656,61	8284,03
656,66	7643,02
656,70	7350,16
656,74	7188,37
656,78	6657,95
656,82	6524,83
656,86	6956,95
656,91	6961,05
656,95	6995,86
656,99	6643,61
657,03	6987,67
657,07	7358,35
657,11	7223,19
657,15	7022,48
657,20	6895,51
657,24	7585,68
657,28	8032,13
657,32	8269,70
657,36	7978,89
657,40	7794,57
657,44	7126,93
657,49	6848,41
657,53	7040,92
657,57	6846,36
657,61	6102,95
657,65	6027,17
657,69	6352,80
657,73	6641,56
657,78	6801,30
657,82	7214,99
657,86	6959,00
657,90	6942,61
657,94	7010,20
657,98	7561,10
658,02	7733,13
658,07	7630,73
658,11	7329,68
658,15	7245,71
658,19	7307,15
658,23	7475,09
658,27	7290,77
658,31	6956,95
658,35	6354,85
658,40	5842,85
658,44	6094,75
658,48	6526,88
658,52	6213,54
658,56	6256,54
658,60	6371,23
658,64	6657,95
658,68	6944,66
658,73	7075,73
658,77	6561,69
658,81	6258,59
658,85	6150,05
658,89	6668,19
658,93	7104,40
658,97	7137,17
659,01	6580,12
659,06	6780,82
659,10	7008,15
659,14	7110,55
659,18	7208,85
659,22	7055,25
659,26	7214,99
659,30	7083,92
659,34	6567,84
659,38	6834,07
659,42	6719,39
659,47	6942,61
659,51	6748,06
659,55	6662,04
659,59	6586,27
659,63	6770,58
659,67	6815,64
659,71	7182,23
659,75	6637,47
659,79	6909,85
659,83	6606,75
659,88	6922,13
659,92	6573,98
659,96	6772,63
660,00	6862,74
660,04	6825,88
660,08	6799,26
660,12	6627,23
660,16	7040,92
660,20	7280,53
660,24	7573,39
660,28	6776,73
660,33	7149,46
660,37	6985,62
660,41	6610,84
660,45	6279,07
660,49	6825,88
660,53	6963,09
660,57	6803,35
660,61	6569,88
660,65	6397,85
660,69	6002,60
660,73	5982,12
660,77	5695,40
660,82	6444,96
660,86	6801,30
660,90	6807,45
660,94	6823,83
660,98	6799,26
661,02	6854,55
661,06	6696,86
661,10	6639,51
661,14	6578,08
661,18	6483,87
661,22	6543,26
661,26	6375,33
661,30	6227,87
661,34	6238,11
661,39	6291,36
661,43	6524,83
661,47	6393,76
661,51	6043,56
661,55	6225,83
661,59	6021,03
661,63	6021,03
661,67	6041,51
661,71	5996,45
661,75	6051,75
661,79	6090,66
661,83	5892,01
661,87	6055,84
661,91	6592,41
661,95	6834,07
661,99	6569,88
662,03	6602,65
662,08	6817,69
662,12	7260,05
662,16	6703,00
662,20	6365,09
662,24	6125,47
662,28	6031,27
662,32	5961,64
662,36	5713,83
662,40	5760,94
662,44	6002,60
662,48	5973,92
662,52	6121,38
662,56	5799,85
662,60	6090,66
662,64	5846,95
662,68	5955,49
662,72	6125,47
662,76	6524,83
662,80	6377,37
662,84	6375,33
662,88	6346,66
662,92	5935,01
662,96	5695,40
663,00	5570,48
663,04	5638,06
663,09	5769,13
663,13	6176,67
663,17	6401,95
663,21	6297,50
663,25	6217,63
663,29	6287,26
663,33	6352,80
663,37	6502,30
663,41	6180,77
663,45	6256,54
663,49	6463,39
663,53	6375,33
663,57	6240,16
663,61	6420,38
663,65	8560,51
663,69	6561,69
663,73	6418,33
663,77	6526,88
663,81	6299,55
663,85	6168,48
663,89	5709,74
663,93	5787,56
663,97	5752,74
664,01	6066,08
664,05	5969,83
664,09	5775,27
664,13	5656,49
664,17	6055,84
664,21	6408,09
664,25	6242,21
664,29	6150,05
664,33	6090,66
664,37	5898,15
664,41	5973,92
664,45	5939,11
664,49	5986,21
664,53	6082,47
664,57	5810,09
664,61	5580,71
664,65	5644,20
664,69	5879,72
664,73	5957,54
664,77	5840,81
664,81	5861,29
664,85	6041,51
664,89	6180,77
664,93	5607,34
664,97	5822,38
665,01	6113,19
665,05	6100,90
665,09	5965,73
665,13	5978,02
665,17	5744,55
665,21	5758,89
665,25	5543,85
665,29	5625,77
665,33	5593,00
665,37	5461,93
665,41	5404,59
665,45	4988,85
665,49	5107,63
665,53	5349,29
665,57	5562,28
665,61	5523,37
665,65	5451,69
665,69	5246,90
665,73	5382,06
665,77	5384,11
665,81	5705,64
665,85	5611,43
665,89	5830,57
665,92	5814,18
665,96	5545,90
666,00	5328,81
666,04	5726,12
666,08	5832,62
666,12	5650,35
666,16	5726,12
666,20	5539,76
666,24	5285,81
666,28	5038,00
666,32	5181,36
666,36	6045,60
666,40	5812,14
666,44	5820,33
666,48	5377,97
666,52	5101,49
666,56	5250,99
666,60	5124,02
666,64	4992,95
666,68	4665,27
666,72	4648,89
666,76	4609,98
666,80	4716,47
666,84	4853,69
666,88	4906,93
666,91	5081,01
666,95	5451,69
666,99	5517,23
667,03	5337,01
667,07	5105,59
667,11	5062,58
667,15	5003,19
667,19	4761,53
667,23	4636,60
667,27	5148,59
667,31	5384,11
667,35	5773,22
667,39	5910,44
667,43	5990,31
667,47	5795,75
667,51	5801,90
667,55	5638,06
667,58	5488,56
667,62	5685,16
667,66	5926,82
667,70	5629,87
667,74	5179,31
667,78	5038,00
667,82	5099,44
667,86	5173,17
667,90	5257,14
667,94	5511,08
667,98	5212,08
668,02	5394,35
668,06	5265,33
668,10	4829,11
668,13	4835,25
668,17	4755,38
668,21	5291,95
668,25	5300,14
668,29	5478,32
668,33	5414,83
668,37	5248,94
668,41	5138,35
668,45	5185,46
668,49	5158,83
668,53	5427,12
668,57	5255,09
668,60	5169,07
668,64	5087,15
668,68	5601,19
668,72	5232,56
668,76	4919,22
668,80	4978,61
668,84	4751,29
668,88	4812,73
668,92	4663,22
668,96	4808,63
669,00	4829,11
669,03	4976,56
669,07	5214,13
669,11	4861,88
669,15	4933,56
669,19	5050,29
669,23	4976,56
669,27	5046,20
669,31	4831,16
669,35	4802,49
669,39	4755,38
669,42	4278,21
669,46	4190,14
669,50	4194,24
669,54	4290,49
669,58	4523,96
669,62	4569,02
669,66	4603,83
669,70	4802,49
669,74	4673,46
669,78	4956,08
669,81	5136,31
669,85	5109,68
669,89	5300,14
669,93	5099,44
669,97	4982,71
670,01	5025,72
670,05	4558,78
670,09	4376,51
670,12	4362,17
670,16	4487,10
670,20	4702,14
670,24	4552,63
670,28	4552,63
670,32	4456,38
670,36	4315,07
670,40	4376,51
670,43	4325,31
670,47	4196,29
670,51	4253,63
670,55	4546,49
670,59	4257,73
670,63	4134,85
670,67	4419,52
670,71	4515,77
670,74	4351,93
670,78	4464,57
670,82	4335,55
670,86	4298,69
670,90	4413,37
670,94	4534,20
670,98	4507,58
671,01	4507,58
671,05	4466,62
671,09	4335,55
671,13	4675,51
671,17	4392,89
671,21	4470,72
671,25	4083,65
671,28	4257,73
671,32	3874,76
671,36	4020,16
671,40	4106,18
671,44	3764,17
671,48	4089,79
671,52	4005,83
671,55	4145,09
671,59	4351,93
671,63	4335,55
671,67	4196,29
671,71	4403,13
671,75	4175,81
671,79	4491,20
671,82	4292,54
671,86	4284,35
671,90	3958,72
671,94	3667,91
>>>>>End Processed Spectral Data<<<<<
