SpectraSuite Datei
++++++++++++++++++++++++++++++++++++
Datum: Wed Nov 28 10:33:32 CET 2018
Benutzer: Raman
Dark-Spektrum vorhanden: Ja
Referenz-Spektrum vorhanden: Nein
Zahl der probierten Teilspektren: 1
Spektrometer: USB4F00098
Integrationszeit (usec): 4000000 (USB4F00098)
Spektren Durchschnitt berechnet: 1 (USB4F00098)
Boxcar Glättung: 0 (USB4F00098)
Dunkelstromkorrektur: Nein (USB4F00098)
Puls/Lampe aktiviert: Nein (USB4F00098)
Correct for Detector Non-linearity: Nein (USB4F00098)
Streulichtkorrektur: Nein (USB4F00098)
Anzahl Pixel in verarbeitetem Spektrum: 3648
>>>>>Begin Processed Spectral Data<<<<<
476,77	-51,20
476,84	-51,20
476,91	-51,20
476,98	30,72
477,04	20,48
477,11	-16,38
477,18	77,82
477,25	346,11
477,32	157,69
477,39	51,20
477,45	-112,64
477,52	-51,20
477,59	-6,14
477,66	249,85
477,73	419,83
477,80	368,63
477,86	444,41
477,93	380,92
478,00	1361,90
478,07	2656,22
478,14	2584,54
478,21	2676,70
478,27	2500,57
478,34	2590,68
478,41	2723,80
478,48	2596,82
478,55	2615,26
478,62	3020,75
478,68	3012,56
478,75	2535,39
478,82	2320,35
478,89	2455,51
478,96	2557,91
479,02	2824,15
479,09	2475,99
479,16	2623,45
479,23	2596,82
479,30	2822,10
479,37	2785,24
479,43	2602,97
479,50	2684,89
479,57	2535,39
479,64	2357,21
479,71	2478,04
479,77	2490,33
479,84	2631,64
479,91	2629,59
479,98	2797,53
480,05	2519,00
480,11	2488,28
480,18	2721,75
480,25	2572,25
480,32	2584,54
480,39	2611,16
480,45	2738,13
480,52	2820,05
480,59	2664,41
480,66	2697,17
480,73	2766,81
480,79	2879,44
480,86	2742,23
480,93	2779,09
481,00	2793,43
481,07	2684,89
481,13	2496,47
481,20	2543,58
481,27	2813,91
481,34	2672,60
481,41	2762,71
481,47	2699,22
481,54	2559,96
481,61	3022,80
481,68	2861,01
481,74	3147,73
481,81	3145,68
481,88	2930,64
481,95	3196,88
482,02	3409,87
482,08	2873,30
482,15	2418,65
482,22	2734,04
482,29	3004,37
482,35	2940,88
482,42	2772,95
482,49	2734,04
482,56	2721,75
482,63	2748,37
482,69	3119,06
482,76	2897,88
482,83	3106,77
482,90	2908,12
482,96	2709,46
483,03	3024,85
483,10	3270,61
483,17	3098,58
483,24	2822,10
483,30	2998,23
483,37	2756,57
483,44	2918,36
483,51	3078,10
483,57	2863,06
483,64	2883,54
483,71	2598,87
483,78	2680,79
483,84	3082,19
483,91	2897,88
483,98	3100,62
484,05	3149,78
484,11	3129,30
484,18	3286,99
484,25	3078,10
484,32	3178,45
484,38	3061,71
484,45	3346,38
484,52	3243,98
484,59	3596,23
484,65	3137,49
484,72	2918,36
484,79	2797,53
484,86	2949,08
484,92	3213,26
484,99	3262,41
485,06	3102,67
485,13	3139,54
485,19	3303,37
485,26	3502,03
485,33	3211,21
485,40	3475,40
485,46	3262,41
485,53	3188,69
485,60	3043,28
485,67	3360,72
485,73	2994,13
485,80	3213,26
485,87	2791,38
485,94	3203,02
486,00	3323,85
486,07	3479,50
486,14	3403,72
486,20	3418,06
486,27	2947,03
486,34	3209,17
486,41	3106,77
486,47	3397,58
486,54	3669,96
486,61	3854,28
486,68	3565,51
486,74	3569,61
486,81	3702,73
486,88	3479,50
486,94	3106,77
487,01	3266,51
487,08	3344,33
487,15	3602,38
487,21	3614,66
487,28	3536,84
487,35	3569,61
487,41	3444,68
487,48	3690,44
487,55	3819,46
487,62	3481,55
487,68	3502,03
487,75	3837,89
487,82	3620,81
487,88	3452,88
487,95	3655,62
488,02	3469,26
488,09	3794,89
488,15	3774,41
488,22	3846,09
488,29	3241,93
488,35	3459,02
488,42	3567,56
488,49	3786,69
488,56	3764,17
488,62	3792,84
488,69	3827,65
488,76	4016,07
488,82	3852,23
488,89	3739,59
488,96	3487,69
489,02	3573,71
489,09	4014,02
489,16	3909,57
489,22	4040,64
489,29	3917,76
489,36	3956,68
489,43	3899,33
489,49	3581,90
489,56	3860,42
489,63	3760,07
489,69	4100,03
489,76	3717,06
489,83	3727,30
489,89	3733,45
489,96	3839,94
490,03	3928,00
490,09	4417,47
490,16	4159,42
490,23	3528,65
490,29	3661,77
490,36	3749,83
490,43	4018,11
490,50	4138,94
490,56	4181,95
490,63	3917,76
490,70	3893,19
490,76	4120,51
490,83	3891,14
490,90	4050,88
490,96	3954,63
491,03	3764,17
491,10	3928,00
491,16	4091,84
491,23	3772,36
491,30	3964,87
491,36	3991,49
491,43	4175,81
491,50	4163,52
491,56	3854,28
491,63	4243,39
491,70	4329,41
491,76	3913,67
491,83	4145,09
491,90	4145,09
491,96	4437,95
492,03	4245,44
492,10	4310,97
492,16	4388,80
492,23	4325,31
492,30	4251,58
492,36	3944,39
492,43	4741,05
492,50	4589,50
492,56	4366,27
492,63	4552,63
492,70	4425,66
492,76	4362,17
492,83	4526,01
492,89	4947,89
492,96	4710,33
493,03	4710,33
493,09	4446,14
493,16	4722,62
493,23	4259,78
493,29	4362,17
493,36	4528,06
493,43	4646,84
493,49	4505,53
493,56	4550,59
493,63	4388,80
493,69	5173,17
493,76	5017,52
493,82	4779,96
493,89	4972,47
493,96	4947,89
494,02	4902,84
494,09	5150,64
494,16	5021,62
494,22	4937,65
494,29	4845,49
494,36	5173,17
494,42	4884,41
494,49	4923,32
494,55	4978,61
494,62	4931,51
494,69	5126,07
494,75	5386,16
494,82	5619,63
494,89	5476,27
494,95	5283,76
495,02	5560,24
495,08	5564,33
495,15	5468,08
495,22	5140,40
495,28	5181,36
495,35	5154,74
495,42	5101,49
495,48	5220,27
495,55	5242,80
495,61	5230,51
495,68	6059,94
495,75	6016,93
495,81	6037,41
495,88	5679,02
495,94	5955,49
496,01	5414,83
496,08	5660,59
496,14	5822,38
496,21	5855,14
496,28	5324,72
496,34	5457,84
496,41	5433,26
496,47	5828,52
496,54	5447,60
496,61	5765,03
496,67	5326,77
496,74	5242,80
496,80	5808,04
496,87	5705,64
496,94	5859,24
497,00	6586,27
497,07	6782,87
497,13	7024,53
497,20	6430,62
497,27	6250,40
497,33	6234,02
497,40	6516,64
497,46	6217,63
497,53	6752,15
497,60	6866,84
497,66	6543,26
497,73	6154,15
497,79	6580,12
497,86	6100,90
497,93	6240,16
497,99	6010,79
498,06	6772,63
498,12	6598,56
498,19	7083,92
498,25	7446,41
498,32	7096,21
498,39	6735,77
498,45	7188,37
498,52	6471,58
498,58	7311,25
498,65	7055,25
498,72	7059,35
498,78	6145,95
498,85	6045,60
498,91	6561,69
498,98	6729,63
499,04	6875,03
499,11	6842,26
499,18	6975,38
499,24	7190,42
499,31	7679,88
499,37	7491,47
499,44	7210,90
499,50	7319,44
499,57	7526,29
499,64	7104,40
499,70	6887,32
499,77	7575,44
499,83	7139,22
499,90	7028,63
499,96	6825,88
500,03	6901,65
500,09	7266,19
500,16	7141,27
500,23	7133,08
500,29	7675,79
500,36	7573,39
500,42	7653,26
500,49	7550,86
500,55	7968,65
500,62	7301,01
500,68	7507,85
500,75	7440,27
500,82	7628,68
500,88	7278,48
500,95	7217,04
501,01	7090,07
501,08	7915,40
501,14	7948,17
501,21	7907,21
501,27	8404,86
501,34	8003,46
501,41	7430,03
501,47	7825,29
501,54	7622,54
501,60	8408,96
501,67	8312,71
501,73	8578,94
501,80	8857,46
501,86	9160,56
501,93	9166,71
501,99	8607,61
502,06	8179,59
502,12	9066,36
502,19	8351,62
502,26	8755,07
502,32	8404,86
502,39	8736,63
502,45	8836,99
502,52	8914,81
502,58	9348,98
502,65	9484,14
502,71	8990,58
502,78	8820,60
502,84	8980,34
502,91	9191,28
502,97	8433,54
503,04	9297,78
503,10	9693,04
503,17	9893,74
503,23	9537,39
503,30	9766,76
503,37	8951,67
503,43	9297,78
503,50	9957,22
503,56	10174,31
503,63	9017,21
503,69	9459,57
503,76	9564,01
503,82	8822,65
503,89	8779,64
503,95	9379,70
504,02	9903,98
504,08	9846,63
504,15	8845,18
504,21	8818,55
504,28	9377,65
504,34	9340,79
504,41	9813,87
504,47	10282,85
504,54	9881,45
504,60	9920,36
504,67	9615,21
504,73	9903,98
504,80	9756,52
504,86	9957,22
504,93	10262,37
504,99	10680,16
505,06	10000,23
505,12	10192,74
505,19	9908,07
505,25	11124,57
505,32	10616,67
505,38	11251,54
505,45	11423,57
505,51	11263,83
505,58	10737,50
505,64	11016,02
505,71	10731,36
505,77	10846,04
505,84	10420,06
505,90	11200,34
505,97	10907,48
506,03	11499,34
506,10	10999,64
506,16	11145,05
506,23	11095,89
506,29	10846,04
506,36	10930,01
506,42	10692,44
506,49	10714,97
506,55	11286,36
506,62	11077,46
506,68	11417,43
506,75	10631,01
506,81	11355,99
506,87	10944,34
506,94	12283,72
507,00	11896,65
507,07	11900,75
507,13	11278,16
507,20	11439,95
507,26	12343,11
507,33	12918,59
507,39	12603,20
507,46	12166,98
507,52	11663,18
507,59	12095,30
507,65	12592,96
507,72	12678,97
507,78	11923,27
507,85	11517,78
507,91	11390,80
507,97	13393,72
508,04	13397,81
508,10	13635,38
508,17	13997,87
508,23	13225,78
508,30	12902,20
508,36	13203,25
508,43	12257,09
508,49	13168,44
508,56	12590,91
508,62	13348,66
508,69	12808,00
508,75	13754,16
508,81	12924,73
508,88	13770,54
508,94	13391,67
509,01	13657,90
509,07	13186,87
509,14	13453,11
509,20	14120,74
509,27	14823,20
509,33	14090,03
509,39	13915,95
509,46	13051,70
509,52	13043,51
509,59	12955,45
509,65	13662,00
509,72	14311,21
509,78	15032,09
509,85	14868,25
509,91	14720,80
509,97	13418,29
510,04	13963,05
510,10	14497,57
510,17	15673,10
510,23	15300,37
510,30	15238,94
510,36	14817,05
510,42	14898,97
510,49	15220,50
510,55	15062,81
510,62	13203,25
510,68	14227,24
510,75	14470,95
510,81	16379,65
510,88	16199,43
510,94	15836,94
511,00	14653,22
511,07	15261,46
511,13	14999,32
511,20	15116,06
511,26	14927,64
511,32	15914,77
511,39	15615,76
511,45	16058,12
511,52	15406,87
511,58	16332,55
511,65	16011,02
511,71	16219,91
511,77	15750,93
511,84	14669,60
511,90	13870,89
511,97	15978,25
512,03	17426,17
512,09	18736,87
512,16	18274,03
512,22	18620,13
512,29	18120,43
512,35	18050,80
512,42	15759,12
512,48	15472,40
512,54	15949,58
512,61	16858,88
512,67	16822,02
512,74	17561,33
512,80	16695,04
512,86	16520,96
512,93	15920,91
512,99	16666,37
513,06	16393,99
513,12	17460,98
513,18	17385,21
513,25	17776,37
513,31	18544,36
513,38	18530,02
513,44	17618,68
513,50	18214,63
513,57	17327,86
513,63	18968,29
513,69	18018,03
513,76	19537,62
513,82	19465,94
513,89	18435,81
513,95	17901,29
514,01	19214,04
514,08	19734,23
514,14	20362,95
514,21	18091,76
514,27	18425,57
514,33	18597,60
514,40	18726,63
514,46	18560,74
514,53	20152,01
514,59	19334,87
514,65	19818,19
514,72	20352,71
514,78	21083,84
514,84	19924,69
514,91	19201,76
514,97	19076,83
515,04	18982,62
515,10	19033,82
515,16	19723,99
515,23	20109,01
515,29	19455,70
515,35	17604,34
515,42	19558,10
515,48	19259,10
515,54	17889,01
515,61	17547,00
515,67	19103,45
515,74	19097,31
515,80	20504,26
515,86	22306,48
515,93	22068,91
515,99	20082,38
516,05	20584,13
516,12	19472,09
516,18	18247,40
516,24	17479,41
516,31	18773,73
516,37	19826,39
516,44	20424,39
516,50	21014,21
516,56	21360,31
516,63	20209,36
516,69	20278,99
516,75	19261,15
516,82	19810,00
516,88	19795,67
516,94	21018,30
517,01	21786,29
517,07	22664,87
517,13	19957,46
517,20	21370,55
517,26	23297,69
517,32	22599,34
517,39	22109,87
517,45	21290,68
517,52	20588,23
517,58	21579,45
517,64	21741,24
517,71	21894,83
517,77	21157,57
517,83	22908,58
517,90	21671,61
517,96	23129,76
518,02	22857,38
518,09	23211,68
518,15	22533,80
518,21	22169,26
518,28	22230,70
518,34	22572,71
518,40	21972,66
518,47	23809,68
518,53	22642,34
518,59	22982,31
518,66	22503,08
518,72	23168,67
518,78	22372,01
518,85	22693,54
518,91	23324,32
518,97	23469,72
519,03	22148,78
519,10	24403,60
519,16	23850,64
519,22	23821,97
519,29	22144,69
519,35	21341,88
519,41	23213,73
519,48	24272,53
519,54	22154,93
519,60	21870,26
519,67	22978,21
519,73	25106,05
519,79	23606,94
519,86	25194,11
519,92	23449,24
519,98	24563,34
520,05	23979,67
520,11	24379,02
520,17	23838,36
520,23	24669,83
520,30	25159,30
520,36	24825,48
520,42	24401,55
520,49	26857,06
520,55	25898,61
520,61	25292,41
520,68	26476,14
520,74	27317,86
520,80	25374,33
520,87	23852,69
520,93	22652,58
520,99	23355,04
521,05	24444,56
521,12	26136,18
521,18	27747,93
521,24	27469,40
521,31	26445,42
521,37	27121,25
521,43	26627,69
521,49	27108,96
521,56	27993,68
521,62	27410,01
521,68	26345,07
521,75	26984,04
521,81	26240,62
521,87	25337,47
521,93	23537,30
522,00	25499,26
522,06	26969,70
522,12	27186,79
522,19	26287,73
522,25	27573,85
522,31	27436,64
522,37	25706,10
522,44	21735,09
522,50	21798,58
522,56	19853,01
522,63	18632,42
522,69	15982,35
522,75	14999,32
522,81	12222,28
522,88	10674,01
522,94	8839,03
523,00	7483,28
523,06	5728,17
523,13	4517,82
523,19	4097,99
523,25	3475,40
523,32	2490,33
523,38	2007,01
523,44	1658,85
523,50	1052,66
523,57	696,31
523,63	733,17
523,69	432,12
523,75	454,65
523,82	315,39
523,88	391,16
523,94	190,46
524,00	292,86
524,07	106,49
524,13	106,49
524,19	260,09
524,25	215,04
524,32	172,03
524,38	69,63
524,44	126,97
524,50	43,01
524,57	120,83
524,63	266,24
524,69	94,21
524,75	36,86
524,82	163,84
524,88	73,73
524,94	186,37
525,00	67,58
525,07	108,54
525,13	20,48
525,19	57,34
525,25	178,17
525,32	-40,96
525,38	176,13
525,44	53,25
525,50	65,53
525,57	20,48
525,63	47,10
525,69	43,01
525,75	169,98
525,82	176,13
525,88	10,24
525,94	53,25
526,00	126,97
526,07	114,69
526,13	108,54
526,19	-6,14
526,25	-18,43
526,31	12,29
526,38	112,64
526,44	-63,49
526,50	235,52
526,56	24,58
526,63	-75,77
526,69	149,50
526,75	49,15
526,81	126,97
526,87	36,86
526,94	90,11
527,00	77,82
527,06	10,24
527,12	145,41
527,19	53,25
527,25	145,41
527,31	112,64
527,37	6,14
527,43	28,67
527,50	-6,14
527,56	81,92
527,62	16,38
527,68	106,49
527,75	157,69
527,81	-8,19
527,87	106,49
527,93	163,84
527,99	98,30
528,06	141,31
528,12	26,62
528,18	-53,25
528,24	-8,19
528,30	-2,05
528,37	65,54
528,43	-20,48
528,49	24,58
528,55	26,62
528,61	100,35
528,68	45,06
528,74	49,15
528,80	57,34
528,86	83,97
528,92	165,89
528,99	-20,48
529,05	40,96
529,11	141,31
529,17	67,58
529,23	-22,53
529,29	16,38
529,36	47,10
529,42	118,78
529,48	73,73
529,54	-6,14
529,60	2,05
529,67	145,41
529,73	145,41
529,79	129,02
529,85	10,24
529,91	-22,53
529,98	-30,72
530,04	81,92
530,10	-20,48
530,16	63,49
530,22	28,67
530,28	-51,20
530,35	12,29
530,41	106,49
530,47	69,63
530,53	4,10
530,59	38,91
530,65	-34,82
530,72	-94,21
530,78	116,73
530,84	106,49
530,90	-4,10
530,96	12,29
531,02	-6,14
531,09	45,06
531,15	18,43
531,21	-4,10
531,27	163,84
531,33	36,86
531,39	-53,25
531,46	100,35
531,52	92,16
531,58	65,54
531,64	-63,49
531,70	81,92
531,76	8,19
531,83	75,77
531,89	155,65
531,95	2,05
532,01	63,49
532,07	57,34
532,13	-10,24
532,19	67,58
532,26	96,25
532,32	67,58
532,38	-34,82
532,44	-12,29
532,50	34,82
532,56	147,45
532,63	106,49
532,69	-26,62
532,75	-59,39
532,81	71,68
532,87	94,21
532,93	26,62
532,99	73,73
533,06	106,49
533,12	112,64
533,18	-34,82
533,24	88,06
533,30	-61,44
533,36	14,34
533,42	43,01
533,48	104,45
533,55	-10,24
533,61	131,07
533,67	139,26
533,73	141,31
533,79	-88,06
533,85	-10,24
533,91	235,52
533,98	57,34
534,04	245,76
534,10	-26,62
534,16	73,73
534,22	145,41
534,28	69,63
534,34	-20,48
534,40	34,82
534,47	106,49
534,53	192,51
534,59	124,93
534,65	32,77
534,71	51,20
534,77	36,86
534,83	40,96
534,89	98,30
534,95	51,20
535,02	12,29
535,08	34,82
535,14	178,17
535,20	57,34
535,26	71,68
535,32	10,24
535,38	63,49
535,44	-14,34
535,50	28,67
535,57	34,82
535,63	147,45
535,69	149,50
535,75	192,51
535,81	215,04
535,87	79,87
535,93	178,17
535,99	256,00
536,05	106,49
536,11	176,13
536,18	79,87
536,24	18,43
536,30	135,17
536,36	0,00
536,42	24,58
536,48	59,39
536,54	147,45
536,60	126,97
536,66	106,49
536,72	22,53
536,79	16,38
536,85	176,13
536,91	59,39
536,97	184,32
537,03	71,68
537,09	90,11
537,15	190,46
537,21	159,74
537,27	120,83
537,33	276,48
537,39	159,74
537,45	217,08
537,52	86,01
537,58	247,80
537,64	227,32
537,70	206,84
537,76	178,17
537,82	358,39
537,88	235,52
537,94	157,69
538,00	143,36
538,06	190,46
538,12	317,44
538,18	247,80
538,24	311,29
538,31	415,74
538,37	378,87
538,43	440,31
538,49	657,40
538,55	684,02
538,61	839,67
538,67	1062,90
538,73	1277,93
538,79	1566,70
538,85	2170,85
538,91	3049,43
538,97	3958,72
539,03	5148,59
539,09	6911,89
539,15	9217,91
539,21	11218,77
539,28	14190,38
539,34	16670,47
539,40	19228,38
539,46	20600,52
539,52	22689,45
539,58	26388,08
539,64	29023,81
539,70	30385,71
539,76	33830,40
539,82	36541,91
539,88	35565,03
539,94	35612,13
540,00	38352,31
540,06	38376,89
540,12	37479,88
540,18	36455,89
540,24	40482,20
540,30	41717,12
540,36	40969,61
540,42	39689,63
540,49	39189,93
540,55	39220,65
540,61	40033,69
540,67	40172,96
540,73	41358,73
540,79	42351,99
540,85	41438,60
540,91	41442,70
540,97	37658,05
541,03	36785,61
541,09	37074,38
541,15	37539,27
541,21	39964,06
541,27	39589,28
541,33	40803,73
541,39	42886,51
541,45	43021,68
541,51	43412,84
541,57	43554,15
541,63	40856,98
541,69	38882,73
541,75	37506,50
541,81	40365,46
541,87	40041,88
541,93	40967,57
541,99	41325,96
542,05	41573,77
542,11	42220,92
542,17	42311,03
542,23	40697,24
542,29	39265,70
542,35	40521,11
542,41	41596,29
542,47	43523,43
542,53	41479,56
542,59	39261,61
542,65	36093,40
542,71	37053,90
542,77	39740,83
542,83	40404,38
542,89	40596,88
542,95	37973,44
543,01	38933,93
543,07	43382,12
543,13	42419,58
543,19	40101,28
543,25	41942,40
543,31	43541,86
543,37	40557,97
543,43	41502,09
543,49	42317,18
543,55	40838,54
543,61	40521,11
543,67	41747,84
543,73	45645,13
543,79	44621,14
543,85	42704,24
543,91	39949,73
543,97	40693,14
544,03	41139,60
544,09	42554,74
544,15	39783,84
544,21	37291,46
544,27	37166,54
544,33	36869,58
544,39	35923,42
544,45	37150,15
544,51	38368,69
544,57	38321,59
544,63	40146,33
544,69	41563,53
544,75	39533,99
544,81	36486,61
544,87	36505,04
544,93	37240,26
544,99	37938,62
545,05	43144,56
545,11	43400,55
545,17	41991,55
545,23	41393,54
545,29	40625,56
545,35	38536,63
545,41	41434,50
545,47	42524,02
545,53	40213,91
545,59	39808,42
545,65	40099,23
545,71	37584,32
545,77	37758,40
545,83	38294,97
545,89	39837,09
545,95	39931,29
546,01	41788,80
546,07	40986,00
546,13	39415,21
546,19	38231,48
546,25	40209,82
546,31	41688,45
546,37	44043,62
546,42	43343,21
546,48	40881,55
546,54	39951,77
546,60	41899,39
546,66	40945,04
546,72	38413,75
546,78	38028,73
546,84	40017,31
546,90	38540,72
546,96	36414,93
547,02	36822,48
547,08	37289,42
547,14	34967,02
547,20	37342,66
547,26	42876,27
547,32	41145,74
547,38	38892,97
547,44	38888,88
547,50	37985,72
547,56	36443,60
547,62	37246,41
547,67	38659,51
547,73	39419,30
547,79	40615,32
547,85	40074,65
547,91	39140,78
547,97	40226,20
548,03	43111,79
548,09	42761,59
548,15	42542,45
548,21	41692,55
548,27	39802,27
548,33	39017,90
548,39	38354,36
548,45	36652,50
548,51	35270,12
548,56	37246,41
548,62	39142,83
548,68	40406,42
548,74	41276,81
548,80	42462,58
548,86	40854,93
548,92	40553,88
548,98	40426,90
549,04	39015,85
549,10	38991,28
549,16	38247,86
549,22	39165,35
549,28	40736,15
549,34	39392,68
549,39	36734,42
549,45	35825,12
549,51	35255,78
549,57	38149,56
549,63	39552,42
549,69	36795,85
549,75	35974,62
549,81	38467,00
549,87	39767,46
549,93	37246,41
549,99	36326,87
550,04	37809,60
550,10	39476,65
550,16	38950,32
550,22	39646,63
550,28	39652,77
550,34	41330,06
550,40	41168,27
550,46	41198,99
550,52	38260,15
550,58	37914,05
550,64	39323,05
550,69	39359,91
550,75	40150,43
550,81	43529,58
550,87	45446,47
550,93	42483,06
550,99	42112,38
551,05	43920,74
551,11	41618,82
551,17	40824,21
551,23	43072,88
551,28	44299,61
551,34	41270,67
551,40	38786,48
551,46	38536,63
551,52	37850,56
551,58	35739,10
551,64	35984,86
551,70	37324,23
551,76	38507,96
551,81	40238,49
551,87	39628,20
551,93	39241,13
551,99	39626,15
552,05	38383,03
552,11	36941,26
552,17	37217,74
552,23	38337,98
552,28	42458,49
552,34	42782,07
552,40	41016,72
552,46	39032,24
552,52	38393,27
552,58	36392,40
552,64	37332,42
552,70	38340,02
552,75	39867,81
552,81	42036,61
552,87	41151,88
552,93	41530,76
552,99	39798,18
553,05	38718,90
553,11	39331,24
553,17	42268,03
553,22	44424,54
553,28	43193,71
553,34	39306,66
553,40	35997,15
553,46	35696,10
553,52	36025,82
553,58	38720,95
553,63	40762,77
553,69	42605,94
553,75	41387,40
553,81	41418,12
553,87	41086,35
553,93	39163,31
553,99	41332,11
554,04	42143,10
554,10	41475,46
554,16	41029,01
554,22	40478,10
554,28	38827,44
554,34	40922,51
554,40	40881,55
554,45	40926,61
554,51	40039,84
554,57	38241,72
554,63	38051,26
554,69	37920,19
554,75	36842,96
554,80	35646,94
554,86	37287,37
554,92	38407,61
554,98	37107,15
555,04	39007,66
555,10	40721,81
555,16	40818,07
555,21	39067,05
555,27	37682,62
555,33	38553,01
555,39	40592,79
555,45	41211,28
555,51	43382,12
555,56	39763,36
555,62	38084,03
555,68	39673,25
555,74	41086,35
555,80	40615,32
555,86	37445,06
555,91	37580,23
555,97	39953,82
556,03	42290,55
556,09	40867,22
556,15	38839,73
556,20	38233,53
556,26	39708,07
556,32	39374,25
556,38	42759,54
556,44	38694,32
556,50	35751,39
556,55	35931,61
556,61	37672,39
556,67	39964,06
556,73	40142,24
556,79	37715,39
556,84	36023,77
556,90	38045,12
556,96	39290,28
557,02	37287,37
557,08	35714,53
557,14	37060,04
557,19	39716,26
557,25	39642,53
557,31	39042,48
557,37	41184,65
557,43	40744,34
557,48	38923,69
557,54	38528,44
557,60	37907,90
557,66	38331,83
557,72	39071,15
557,77	39388,58
557,83	39245,23
557,89	36988,36
557,95	35515,87
558,01	35900,89
558,06	35511,78
558,12	35257,83
558,18	36017,63
558,24	35380,71
558,30	35937,76
558,35	39097,77
558,41	42917,23
558,47	41084,30
558,53	40277,40
558,59	37789,12
558,64	38608,31
558,70	36748,75
558,76	36283,86
558,82	37737,92
558,88	38622,64
558,93	38981,04
558,99	40443,29
559,05	40682,90
559,11	40279,45
559,16	37617,09
559,22	37307,85
559,28	36689,36
559,34	37455,30
559,40	39316,90
559,45	37871,04
559,51	39163,31
559,57	37150,15
559,63	38147,51
559,68	38145,47
559,74	37101,00
559,80	35462,63
559,86	36054,49
559,92	35358,18
559,97	34713,07
560,03	36611,54
560,09	35665,38
560,15	38870,45
560,20	39183,79
560,26	36363,73
560,32	36365,78
560,38	36769,23
560,43	39542,18
560,49	39144,87
560,55	37696,96
560,61	36128,22
560,66	35503,59
560,72	35823,07
560,78	36552,15
560,84	37158,34
560,90	38632,88
560,95	38430,13
561,01	37940,67
561,07	39118,25
561,13	38444,47
561,18	36361,69
561,24	37832,13
561,30	38413,75
561,36	38489,52
561,41	37311,94
561,47	36355,54
561,53	36634,06
561,59	34821,61
561,64	34735,60
561,70	36728,27
561,76	38258,10
561,82	40775,06
561,87	39126,44
561,93	36658,64
561,99	35941,85
562,05	36081,11
562,10	39577,00
562,16	42286,46
562,22	39355,82
562,27	37983,68
562,33	37864,89
562,39	36517,33
562,45	34125,30
562,50	33418,75
562,56	34418,16
562,62	35933,66
562,68	39155,11
562,73	38192,57
562,79	35128,81
562,85	34817,52
562,91	34055,67
562,96	36009,43
563,02	37580,23
563,08	35786,21
563,13	36654,54
563,19	38102,46
563,25	37635,52
563,31	37270,98
563,36	35845,60
563,42	35519,97
563,48	34434,55
563,53	35233,25
563,59	35976,67
563,65	37578,18
563,71	37633,47
563,76	38479,28
563,82	39562,66
563,88	38200,76
563,94	35059,18
563,99	35061,23
564,05	37379,53
564,11	37762,50
564,16	37117,39
564,22	39171,50
564,28	40854,93
564,33	39349,67
564,39	36613,59
564,45	35395,04
564,51	35954,14
564,56	37508,55
564,62	37690,82
564,68	38024,64
564,73	38976,94
564,79	36541,91
564,85	39574,95
564,91	36089,31
564,96	34719,21
565,02	34518,51
565,08	36144,60
565,13	34950,63
565,19	34803,18
565,25	36742,61
565,30	36869,58
565,36	37043,66
565,42	36507,09
565,47	35323,36
565,53	35722,72
565,59	33195,53
565,65	31946,26
565,70	35212,77
565,76	34829,80
565,82	33562,11
565,87	33259,01
565,93	34389,49
565,99	31948,31
566,04	31858,20
566,10	32732,68
566,16	34117,11
566,21	35364,32
566,27	34508,27
566,33	33859,07
566,38	33787,39
566,44	35259,88
566,50	36998,60
566,55	39325,10
566,61	37463,49
566,67	34846,19
566,73	34698,73
566,78	36609,49
566,84	35853,79
566,90	33877,50
566,95	34199,03
567,01	35218,92
567,07	35605,98
567,12	35937,76
567,18	33070,60
567,24	31323,68
567,29	32407,06
567,35	34993,64
567,41	37311,94
567,46	37975,48
567,52	38550,96
567,58	36324,82
567,63	36048,35
567,69	37242,31
567,75	36705,74
567,80	35438,05
567,86	37483,97
567,91	38262,20
567,97	37137,87
568,03	37094,86
568,08	35280,36
568,14	34334,20
568,20	34799,09
568,25	34373,11
568,31	33230,34
568,37	35511,78
568,42	36247,00
568,48	36152,79
568,54	36083,16
568,59	37033,42
568,65	35147,24
568,71	33375,75
568,76	33398,27
568,82	36103,64
568,88	38450,61
568,93	37809,60
568,99	39562,66
569,04	39867,81
569,10	35605,98
569,16	32106,01
569,21	32099,86
569,27	33910,27
569,33	33775,10
569,38	36077,02
569,44	35876,32
569,50	34522,61
569,55	35163,62
569,61	36197,85
569,66	37838,27
569,72	36392,40
569,78	35562,98
569,83	35653,09
569,89	37674,43
569,95	39384,49
570,00	37985,72
570,06	35853,79
570,11	35685,86
570,17	33861,12
570,23	33807,87
570,28	34735,60
570,34	37922,24
570,40	38467,00
570,45	38245,82
570,51	35935,71
570,56	34891,24
570,62	36509,14
570,68	36789,71
570,73	38059,45
570,79	36496,85
570,85	34252,28
570,90	34084,34
570,96	35390,95
571,01	34764,27
571,07	34104,82
571,13	35306,98
571,18	34858,48
571,24	33416,71
571,29	34967,02
571,35	37918,14
571,41	38475,19
571,46	37717,44
571,52	35042,79
571,57	31798,81
571,63	31872,54
571,69	33936,89
571,74	37125,58
571,80	36546,00
571,85	35032,55
571,91	32116,25
571,97	34041,34
572,02	36130,26
572,08	37557,70
572,13	38514,10
572,19	36021,72
572,25	32429,59
572,30	31589,92
572,36	34342,39
572,41	37987,77
572,47	35093,99
572,53	32790,03
572,58	34000,38
572,64	35036,65
572,69	35837,41
572,75	35243,49
572,80	36679,12
572,86	36914,64
572,92	35442,15
572,97	34196,98
573,03	31868,44
573,08	31520,29
573,14	33228,29
573,20	35655,14
573,25	34782,70
573,31	33762,81
573,36	35317,22
573,42	35405,28
573,47	35081,70
573,53	33678,85
573,59	34575,86
573,64	34297,33
573,70	32179,73
573,75	32288,28
573,81	35071,46
573,86	37836,22
573,92	35595,74
573,98	32511,50
574,03	33730,05
574,09	35909,08
574,14	36365,78
574,20	33265,16
574,25	30357,04
574,31	32087,57
574,37	33326,60
574,42	32966,15
574,48	33891,83
574,53	34338,29
574,59	33680,89
574,64	32568,85
574,70	32611,85
574,75	33922,55
574,81	34127,35
574,87	33908,22
574,92	32937,48
574,98	35837,41
575,03	34997,74
575,09	33064,46
575,14	31745,56
575,20	30533,17
575,25	31850,01
575,31	31944,22
575,37	33891,83
575,42	34053,62
575,48	32069,14
575,53	29838,90
575,59	31503,90
575,64	33701,37
575,70	33433,09
575,75	33031,69
575,81	32933,39
575,86	33635,84
575,92	34338,29
575,98	36384,21
576,03	36480,47
576,09	35083,75
576,14	33535,49
576,20	32353,81
576,25	33420,80
576,31	32873,99
576,36	33232,39
576,42	32400,91
576,47	34354,68
576,53	34258,42
576,58	32634,38
576,64	34160,12
576,69	35147,24
576,75	33730,05
576,81	32638,48
576,86	31809,05
576,92	31856,15
576,97	32634,38
577,03	33256,96
577,08	37010,89
577,14	37756,35
577,19	36914,64
577,25	32871,95
577,30	29668,92
577,36	28313,17
577,41	30441,01
577,47	31213,09
577,52	31565,34
577,58	32247,32
577,63	32042,52
577,69	32185,88
577,74	32542,22
577,80	34825,71
577,85	34201,08
577,91	34002,43
577,96	34518,51
578,02	33607,17
578,07	31696,41
578,13	31624,73
578,18	33357,31
578,24	30826,03
578,29	30199,35
578,35	31569,44
578,40	32685,58
578,46	31727,13
578,51	32179,73
578,57	32226,84
578,62	31700,51
578,68	31122,98
578,73	31706,65
578,79	31645,21
578,84	29253,19
578,90	29214,27
578,95	30000,69
579,01	29896,25
579,06	32196,12
579,12	32753,16
579,17	32194,07
579,23	31852,06
579,28	31479,33
579,34	32159,25
579,39	31868,44
579,45	32896,52
579,50	31559,20
579,56	32857,61
579,61	33822,20
579,67	32970,25
579,72	30903,85
579,78	30459,44
579,83	30475,82
579,89	29818,42
579,94	30379,57
580,00	31342,11
580,05	30936,62
580,11	31596,06
580,16	32298,52
580,22	32359,95
580,27	31716,89
580,32	32120,34
580,38	32902,67
580,43	31843,87
580,49	30975,53
580,54	32697,87
580,60	34545,14
580,65	32179,73
580,71	30123,57
580,76	30686,76
580,82	31747,61
580,87	30228,02
580,93	31952,41
580,98	32452,11
581,04	32998,92
581,09	34766,32
581,14	33672,70
581,20	33603,07
581,25	33830,40
581,31	31493,66
581,36	28681,80
581,42	29916,73
581,47	31874,59
581,53	34649,58
581,58	34094,58
581,64	30903,85
581,69	31409,70
581,75	32271,89
581,80	29425,22
581,85	26439,28
581,91	31751,71
581,96	33553,92
582,02	32742,92
582,07	31768,09
582,13	31782,43
582,18	33160,71
582,24	33103,37
582,29	31555,10
582,34	31315,49
582,40	30185,01
582,45	30582,32
582,51	33453,57
582,56	34309,62
582,62	32517,65
582,67	30668,33
582,73	31458,85
582,78	29935,16
582,83	30082,61
582,89	31890,97
582,94	32458,26
583,00	30334,51
583,05	30139,96
583,11	31872,54
583,16	33414,66
583,21	32382,48
583,27	29072,96
583,32	28114,52
583,38	27479,64
583,43	28855,88
583,49	31049,25
583,54	32347,67
583,59	33295,88
583,65	35405,28
583,70	35845,60
583,76	33181,19
583,81	33115,65
583,87	30838,31
583,92	30135,86
583,97	30455,34
584,03	29552,19
584,08	28532,30
584,14	28331,60
584,19	28673,61
584,24	28530,25
584,30	29185,60
584,35	28984,90
584,41	28386,89
584,46	30549,55
584,52	31454,75
584,57	31082,02
584,62	29963,83
584,68	30785,07
584,73	31677,98
584,79	32716,30
584,84	33920,51
584,89	34225,65
584,95	32599,57
585,00	30418,48
585,06	28458,57
585,11	28081,75
585,16	29836,86
585,22	31082,02
585,27	31202,85
585,33	29834,81
585,38	28347,98
585,43	30201,40
585,49	30381,62
585,54	30109,24
585,60	26400,37
585,65	27981,40
585,70	30881,32
585,76	33259,01
585,81	31866,39
585,87	32237,08
585,92	28968,52
585,97	27422,30
586,03	30051,89
586,08	33189,38
586,13	33807,87
586,19	32292,37
586,24	34600,43
586,30	32022,04
586,35	29926,97
586,40	29871,67
586,46	30060,09
586,51	30256,69
586,57	29533,76
586,62	30742,06
586,67	28780,10
586,73	28417,61
586,78	29277,76
586,83	28671,56
586,89	29623,87
586,94	28597,84
587,00	28145,23
587,05	28841,54
587,10	31665,69
587,16	31344,16
587,21	30664,24
587,26	28511,82
587,32	28769,86
587,37	29722,17
587,42	29175,36
587,48	30205,49
587,53	32079,38
587,59	30240,31
587,64	27248,22
587,69	28536,40
587,75	31348,26
587,80	32134,68
587,85	31800,86
587,91	30619,18
587,96	29873,72
588,01	31069,73
588,07	32282,13
588,12	32714,25
588,17	31057,45
588,23	27485,79
588,28	27248,22
588,34	30117,43
588,39	32071,19
588,44	30211,64
588,50	28692,04
588,55	28442,19
588,60	28380,75
588,66	28491,34
588,71	30287,41
588,76	31194,66
588,82	31850,01
588,87	32130,58
588,92	30977,58
588,98	30053,94
589,03	30606,89
589,08	30746,15
589,14	29863,48
589,19	31057,45
589,24	31522,34
589,30	30656,04
589,35	29625,92
589,40	29134,40
589,46	28374,61
589,51	28595,79
589,56	28544,59
589,62	29185,60
589,67	29148,74
589,72	26201,71
589,78	28108,37
589,83	30430,77
589,88	28005,97
589,94	28005,97
589,99	29918,78
590,04	29943,35
590,10	29939,26
590,15	28425,81
590,20	28507,72
590,26	29240,90
590,31	29339,20
590,36	28710,47
590,42	29138,50
590,47	27737,69
590,52	26967,65
590,58	26472,04
590,63	26355,31
590,68	25912,95
590,74	27772,50
590,79	28646,99
590,84	29740,60
590,89	29138,50
590,95	28280,40
591,00	26672,74
591,05	26087,03
591,11	26795,62
591,16	26986,08
591,21	25253,50
591,27	25818,74
591,32	25486,97
591,37	26361,45
591,43	26373,74
591,48	27514,46
591,53	28608,08
591,58	28063,32
591,64	26007,16
591,69	25980,53
591,74	26836,58
591,80	27180,64
591,85	29255,23
591,90	28366,42
591,96	28065,36
592,01	27182,69
592,06	27190,88
592,11	27913,81
592,17	27397,73
592,22	27575,90
592,27	26361,45
592,33	26492,52
592,38	26476,14
592,43	28048,98
592,48	28139,09
592,54	27958,87
592,59	28878,41
592,64	27319,90
592,70	27250,27
592,75	28769,86
592,80	29216,32
592,85	27977,30
592,91	26336,88
592,96	27440,73
593,01	28227,15
593,07	31110,69
593,12	29978,17
593,17	27506,27
593,22	27483,74
593,28	29378,11
593,33	28659,27
593,38	28573,26
593,44	26574,44
593,49	25312,89
593,54	26242,67
593,59	26541,68
593,65	24843,91
593,70	25446,01
593,75	25620,09
593,80	25804,41
593,86	24712,84
593,91	26844,77
593,96	27489,88
594,01	28966,47
594,07	27403,87
594,12	26435,18
594,17	27727,45
594,23	28968,52
594,28	27274,85
594,33	25591,42
594,38	24446,60
594,44	24473,23
594,49	25300,61
594,54	26783,34
594,59	26998,37
594,65	26996,32
594,70	28548,68
594,75	29308,48
594,80	30166,58
594,86	26932,84
594,91	24196,75
594,96	25407,10
595,01	26312,30
595,07	27043,43
595,12	26496,62
595,17	26596,97
595,22	28704,33
595,28	29310,53
595,33	28892,74
595,38	26015,35
595,43	25058,95
595,49	24962,69
595,54	26902,12
595,59	28403,28
595,64	28595,79
595,69	27219,55
595,75	27792,98
595,80	27659,87
595,85	27246,18
595,90	27932,25
595,96	27432,54
596,01	26979,94
596,06	25794,17
596,11	24858,24
596,17	25351,81
596,22	27506,27
596,27	25783,93
596,32	25032,32
596,38	24354,44
596,43	25036,42
596,48	25294,46
596,53	26488,43
596,58	26412,65
596,64	26445,42
596,69	25980,53
596,74	26400,37
596,79	26420,84
596,85	26574,44
596,90	25761,40
596,95	25042,56
597,00	25831,03
597,05	25693,82
597,11	23004,83
597,16	22566,57
597,21	23492,25
597,26	23135,90
597,31	24190,61
597,37	26324,59
597,42	24534,67
597,47	22046,38
597,52	23260,83
597,57	24147,60
597,63	24784,52
597,68	25685,62
597,73	23557,78
597,78	23199,39
597,84	23410,33
597,89	25007,75
597,94	27459,16
597,99	28890,70
598,04	27541,08
598,10	25706,10
598,15	24866,44
598,20	25001,60
598,25	23307,93
598,30	24182,41
598,36	26220,14
598,41	26089,07
598,46	25654,90
598,51	25808,50
598,56	25607,80
598,61	23963,28
598,67	24129,17
598,72	26156,66
598,77	27319,90
598,82	25923,19
598,87	25474,68
598,93	26117,75
598,98	26795,62
599,03	25562,75
599,08	26152,56
599,13	27770,46
599,19	28716,62
599,24	27620,95
599,29	27575,90
599,34	26146,42
599,39	24628,87
599,44	24190,61
599,50	23619,22
599,55	23568,02
599,60	24133,26
599,65	28137,04
599,70	29273,67
599,75	27885,14
599,81	25689,72
599,86	25208,45
599,91	25685,62
599,96	26080,88
600,01	25187,97
600,07	26130,03
600,12	25955,96
600,17	25052,80
600,22	24725,13
600,27	24469,13
600,32	24241,81
600,38	24970,88
600,43	27121,25
600,48	26814,05
600,53	27696,73
600,58	25890,42
600,63	25257,60
600,68	25824,89
600,74	23858,84
600,79	23309,98
600,84	23416,47
600,89	23858,84
600,94	24479,37
600,99	24628,87
601,05	26326,64
601,10	25820,79
601,15	29347,39
601,20	27047,52
601,25	24366,73
601,30	24215,18
601,35	22974,11
601,41	23502,49
601,46	22974,11
601,51	22519,46
601,56	24235,66
601,61	26304,11
601,66	25671,29
601,71	23844,50
601,77	24329,87
601,82	26418,80
601,87	26652,27
601,92	28255,82
601,97	27328,10
602,02	24026,77
602,07	23094,94
602,13	24469,13
602,18	24383,12
602,23	24336,01
602,28	24223,37
602,33	26902,12
602,38	26744,42
602,43	25906,80
602,48	24587,91
602,54	24860,29
602,59	24837,76
602,64	24356,49
602,69	24616,58
602,74	22875,81
602,79	24061,58
602,84	24774,28
602,89	23344,80
602,95	24385,16
603,00	25122,43
603,05	24874,63
603,10	23959,19
603,15	23658,14
603,20	24327,82
603,25	25370,24
603,30	24786,57
603,36	23991,95
603,41	22871,71
603,46	22959,78
603,51	23701,14
603,56	23518,87
603,61	23316,12
603,66	25077,38
603,71	25654,90
603,76	24577,67
603,82	25841,27
603,87	26095,22
603,92	23471,77
603,97	20711,11
604,02	22070,96
604,07	23946,90
604,12	25269,89
604,17	23326,36
604,22	22933,15
604,28	23615,13
604,33	22603,43
604,38	22554,28
604,43	20866,75
604,48	19062,49
604,53	20463,30
604,58	20324,04
604,63	20924,10
604,68	19834,58
604,73	20942,53
604,78	22513,32
604,84	23391,90
604,89	23492,25
604,94	22494,89
604,99	22664,87
605,04	22294,19
605,09	21173,95
605,14	20397,77
605,19	21243,58
605,24	21405,37
605,29	22083,25
605,34	22423,21
605,40	23375,52
605,45	23328,41
605,50	22361,77
605,55	22791,84
605,60	22222,51
605,65	22711,97
605,70	22754,98
605,75	23475,87
605,80	21573,30
605,85	21450,42
605,90	22617,77
605,95	23115,42
606,00	22589,10
606,06	22359,72
606,11	21571,25
606,16	20233,93
606,21	20469,45
606,26	21898,93
606,31	22318,76
606,36	22730,41
606,41	22691,49
606,46	22922,91
606,51	23998,10
606,56	23236,25
606,61	22963,87
606,66	22562,47
606,71	22587,05
606,76	22447,79
606,81	20784,83
606,87	20659,91
606,92	21884,59
606,97	23561,88
607,02	23293,60
607,07	21921,46
607,12	20094,67
607,17	21591,73
607,22	21679,80
607,27	21253,82
607,32	22480,55
607,37	24166,03
607,42	24082,06
607,47	20768,45
607,52	21196,48
607,57	20793,03
607,62	21638,84
607,67	22060,72
607,72	22531,75
607,77	22834,85
607,83	22759,08
607,88	22314,67
607,93	20233,93
607,98	19832,53
608,03	20942,53
608,08	21655,22
608,13	20152,01
608,18	21999,28
608,23	21673,65
608,28	21405,37
608,33	22279,85
608,38	24901,25
608,43	25149,06
608,48	23606,94
608,53	21683,89
608,58	21077,69
608,63	21821,11
608,68	22308,52
608,73	21690,04
608,78	22306,48
608,83	22855,33
608,88	23522,97
608,93	22326,96
608,98	20805,31
609,03	20870,85
609,08	21313,21
609,13	19934,93
609,18	19588,82
609,23	21454,52
609,28	22234,80
609,33	22355,63
609,38	23105,18
609,43	23002,78
609,48	21624,50
609,53	22517,42
609,58	23836,31
609,63	23207,58
609,69	20795,07
609,74	20686,53
609,79	22142,64
609,84	22017,71
609,89	22898,34
609,94	22548,14
609,99	19928,78
610,04	19109,60
610,09	21274,30
610,14	21534,39
610,19	20809,41
610,24	21010,11
610,29	21139,13
610,34	21063,36
610,39	20113,10
610,44	20104,91
610,49	20887,23
610,54	21784,24
610,59	21372,60
610,64	20694,72
610,69	20590,28
610,74	19566,29
610,79	19631,83
610,84	21743,28
610,89	21872,31
610,94	20623,05
610,99	20723,40
611,04	20358,86
611,09	19771,09
611,14	20340,43
611,18	19969,74
611,23	19424,98
611,28	19128,03
611,33	17782,51
611,38	18194,15
611,43	21049,02
611,48	22572,71
611,53	22474,41
611,58	21327,55
611,63	19979,98
611,68	19967,70
611,73	19891,92
611,78	22066,86
611,83	23213,73
611,88	21757,62
611,93	20960,96
611,98	21069,50
612,03	20612,81
612,08	19373,78
612,13	19076,83
612,18	19025,63
612,23	18659,04
612,28	19797,71
612,33	21618,36
612,38	22777,51
612,43	20760,26
612,48	19539,67
612,53	19119,84
612,58	20342,47
612,63	21761,72
612,68	21575,35
612,73	20928,19
612,78	19967,70
612,83	20412,10
612,88	20668,10
612,93	19920,59
612,97	19642,07
613,02	20942,53
613,07	19691,22
613,12	18622,18
613,17	18093,80
613,22	18812,64
613,27	19435,22
613,32	20965,06
613,37	22619,81
613,42	22843,04
613,47	20446,92
613,52	19754,71
613,57	18996,96
613,62	19154,65
613,67	20514,50
613,72	20922,05
613,77	19744,47
613,82	19687,12
613,87	21059,26
613,92	20360,91
613,96	18872,03
614,01	19091,16
614,06	18489,06
614,11	18458,34
614,16	19107,55
614,21	18511,59
614,26	19320,54
614,31	17942,25
614,36	17895,15
614,41	19019,49
614,46	19441,37
614,51	19363,54
614,56	18759,39
614,61	18022,12
614,66	18087,66
614,70	17219,32
614,75	17680,11
614,80	18839,26
614,85	19402,46
614,90	20686,53
614,95	20412,10
615,00	18982,62
615,05	18769,63
615,10	19054,30
615,15	18214,63
615,20	17651,44
615,25	18439,91
615,30	18394,86
615,34	20526,79
615,39	19255,00
615,44	18061,04
615,49	18401,00
615,54	19427,03
615,59	20774,59
615,64	21755,57
615,69	20674,24
615,74	20801,22
615,79	20141,77
615,84	19185,37
615,89	18446,05
615,93	17827,57
615,98	18073,32
616,03	19103,45
616,08	20444,87
616,13	20352,71
616,18	19035,87
616,23	18425,57
616,28	17743,60
616,33	17465,08
616,38	19322,59
616,42	19971,79
616,47	20299,47
616,52	21794,48
616,57	21223,10
616,62	21237,44
616,67	20448,97
616,72	19904,21
616,77	18525,93
616,82	19181,28
616,87	20002,51
616,91	18452,20
616,96	17213,18
617,01	16953,09
617,06	17776,37
617,11	19009,25
617,16	20197,07
617,21	19781,33
617,26	20606,66
617,31	21575,35
617,35	20580,04
617,40	18980,57
617,45	17403,64
617,50	18763,49
617,55	19087,07
617,60	18835,17
617,65	18360,04
617,70	17114,87
617,74	17329,91
617,79	17821,42
617,84	18296,55
617,89	18188,01
617,94	18497,25
617,99	18599,65
618,04	19705,56
618,09	20397,77
618,13	19121,88
618,18	17557,24
618,23	16711,42
618,28	17393,40
618,33	18036,46
618,38	18966,24
618,43	19476,18
618,48	20029,13
618,52	18783,97
618,57	18794,21
618,62	18355,94
618,67	17585,91
618,72	17823,47
618,77	19304,15
618,82	19117,79
618,86	19355,35
618,91	18855,65
618,96	19517,14
619,01	18960,09
619,06	18274,03
619,11	19175,13
619,16	19476,18
619,20	18329,32
619,25	17352,44
619,30	18013,93
619,35	18446,05
619,40	19166,94
619,45	18693,86
619,49	19005,15
619,54	18360,04
619,59	17538,80
619,64	16692,99
619,69	18196,20
619,74	18626,28
619,79	19988,18
619,83	19240,67
619,88	17098,49
619,93	16377,61
619,98	16553,73
620,03	17540,85
620,08	18134,76
620,12	19496,66
620,17	19418,84
620,22	19396,31
620,27	19527,38
620,32	18949,85
620,37	17700,59
620,41	16959,23
620,46	17291,00
620,51	18061,04
620,56	18413,29
620,61	18038,51
620,66	17377,01
620,70	17876,72
620,75	18491,11
620,80	17678,07
620,85	15673,10
620,90	16008,97
620,95	16054,03
620,99	17456,89
621,04	19035,87
621,09	19592,92
621,14	17706,74
621,19	17215,23
621,23	17444,60
621,28	17575,67
621,33	16629,51
621,38	16965,37
621,43	16740,10
621,48	16324,36
621,52	16482,05
621,57	17757,94
621,62	19625,68
621,67	19846,87
621,72	19832,53
621,76	17878,77
621,81	16727,81
621,86	16893,69
621,91	15916,81
621,96	16760,58
622,00	18368,23
622,05	17190,65
622,10	17090,30
622,15	17989,36
622,20	17057,53
622,24	16242,44
622,29	15281,94
622,34	14974,75
622,39	14331,69
622,44	15195,93
622,48	17151,74
622,53	18501,35
622,58	18484,97
622,63	18956,00
622,68	18992,86
622,72	18456,29
622,77	17608,44
622,82	16545,54
622,87	16330,50
622,92	17884,91
622,96	18181,87
623,01	17245,94
623,06	16566,02
623,11	16115,47
623,15	16416,52
623,20	16533,25
623,25	17303,29
623,30	19586,77
623,35	18407,14
623,39	17768,18
623,44	16848,64
623,49	16373,51
623,54	15687,44
623,58	15021,85
623,63	15576,85
623,68	15939,34
623,73	17909,49
623,78	18024,17
623,82	18552,55
623,87	17995,50
623,92	17839,86
623,97	17780,46
624,01	16529,16
624,06	16293,64
624,11	15601,43
624,16	14098,22
624,21	15011,61
624,25	16625,41
624,30	16430,85
624,35	16240,39
624,40	16979,71
624,44	17508,08
624,49	16615,17
624,54	15505,17
624,59	15310,61
624,63	15953,68
624,68	15769,36
624,73	16246,54
624,78	17274,62
624,82	16701,19
624,87	16221,96
624,92	16387,85
624,97	17037,05
625,01	16713,47
625,06	16439,05
625,11	16045,84
625,16	15421,20
625,20	16226,06
625,25	15071,00
625,30	15245,08
625,35	15666,96
625,39	15091,48
625,44	14192,42
625,49	13465,39
625,54	13715,25
625,58	14178,09
625,63	14628,64
625,68	15372,05
625,73	16312,07
625,77	16463,62
625,82	15441,68
625,87	15136,54
625,92	14518,05
625,96	16058,12
626,01	15447,83
626,06	14675,74
626,10	14133,03
626,15	14112,55
626,20	14208,81
626,25	14241,57
626,29	14268,20
626,34	14808,86
626,39	14446,37
626,44	14180,14
626,48	13797,17
626,53	14143,27
626,58	14305,06
626,62	15404,82
626,67	15406,87
626,72	15347,48
626,77	15634,19
626,81	15755,02
626,86	15361,81
626,91	14180,14
626,96	13692,72
627,00	13946,67
627,05	14419,75
627,10	14862,11
627,14	14851,87
627,19	14984,99
627,24	15103,77
627,29	14350,12
627,33	14133,03
627,38	14530,34
627,43	14137,13
627,47	13862,70
627,52	13715,25
627,57	14776,09
627,62	15466,26
627,66	16021,26
627,71	14620,45
627,76	14182,18
627,80	14657,31
627,85	15034,14
627,90	15109,91
627,94	13586,22
627,99	13176,63
628,04	13928,24
628,09	13788,97
628,13	13961,00
628,18	14685,98
628,23	14419,75
628,27	13954,86
628,32	13600,56
628,37	13295,41
628,41	12883,77
628,46	13008,70
628,51	13061,94
628,55	13528,88
628,60	14020,39
628,65	14001,96
628,70	13938,48
628,74	13551,41
628,79	14685,98
628,84	15355,67
628,88	15734,54
628,93	14483,23
628,98	13125,43
629,02	12474,18
629,07	12945,21
629,12	12992,31
629,16	12900,16
629,21	13705,01
629,26	15122,20
629,30	15513,36
629,35	14755,61
629,40	13326,13
629,44	12973,88
629,49	12691,26
629,54	12441,41
629,58	12152,65
629,63	13176,63
629,68	13195,06
629,72	13453,11
629,77	14069,55
629,82	14346,02
629,86	13969,19
629,91	14286,63
629,96	13997,87
630,00	13446,96
630,05	13375,28
630,10	13127,48
630,14	12425,03
630,19	12566,34
630,24	13172,54
630,28	13295,41
630,33	14055,21
630,38	13481,78
630,42	13281,08
630,47	13401,91
630,52	13696,82
630,56	14534,43
630,61	14323,49
630,66	13915,95
630,70	13094,71
630,75	13039,42
630,80	12379,97
630,84	12244,81
630,89	12328,77
630,94	13078,33
630,98	13854,51
631,03	14034,73
631,07	13627,18
631,12	13537,07
631,17	14452,52
631,21	14184,23
631,26	13055,80
631,31	13182,77
631,35	13610,80
631,40	13963,05
631,45	13463,35
631,49	13350,71
631,54	14042,92
631,59	14327,59
631,63	13987,63
631,68	13723,44
631,72	13354,80
631,77	12431,17
631,82	12369,73
631,86	12437,31
631,91	12146,50
631,96	12095,30
632,00	12443,46
632,05	13356,85
632,09	13735,73
632,14	13295,41
632,19	13018,94
632,23	12990,27
632,28	12351,30
632,33	12416,83
632,37	12787,52
632,42	13479,73
632,46	14356,26
632,51	14309,16
632,56	13686,58
632,60	12685,12
632,65	11956,04
632,70	11906,89
632,74	12861,24
632,79	12732,22
632,83	12433,22
632,88	11659,09
632,93	11065,18
632,97	10981,21
633,02	10958,68
633,06	11829,07
633,11	12363,59
633,16	12410,69
633,20	12195,65
633,25	12586,82
633,29	12187,46
633,34	12441,41
633,39	12699,45
633,43	12007,24
633,48	11525,97
633,52	11523,92
633,57	11714,38
633,62	12334,92
633,66	12623,68
633,71	11577,17
633,75	11665,23
633,80	11685,71
633,85	11290,45
633,89	10686,30
633,94	10868,57
633,98	11478,86
634,03	11396,95
634,08	11575,12
634,12	12441,41
634,17	13416,24
634,21	14706,46
634,26	13983,53
634,31	13160,25
634,35	11818,83
634,40	12017,48
634,44	12023,62
634,49	12547,90
634,54	11810,64
634,58	11599,70
634,63	11771,72
634,67	11605,84
634,72	11452,24
634,76	11618,13
634,81	12449,60
634,86	12488,51
634,90	12506,95
634,95	12517,19
634,99	11949,90
635,04	11798,35
635,08	12726,08
635,13	14278,44
635,18	14864,16
635,22	13940,52
635,27	13338,42
635,31	12760,89
635,36	11196,25
635,40	10350,43
635,45	10895,19
635,50	11738,96
635,54	12906,30
635,59	13059,90
635,63	12085,06
635,68	11878,22
635,72	11325,27
635,77	11997,00
635,81	12226,37
635,86	12377,92
635,91	13209,40
635,95	13199,16
636,00	12476,23
636,04	11728,72
636,09	11286,36
636,13	11327,32
636,18	11652,94
636,22	11331,41
636,27	11317,08
636,32	12154,69
636,36	12756,80
636,41	13023,03
636,45	12050,25
636,50	11921,23
636,54	11554,64
636,59	10628,96
636,63	10590,05
636,68	11204,44
636,73	12091,21
636,77	12474,18
636,82	13725,49
636,86	14018,35
636,91	12179,27
636,95	11093,85
637,00	10549,09
637,04	10561,37
637,09	10913,63
637,13	10970,97
637,18	11173,72
637,22	11157,33
637,27	11085,65
637,31	11046,74
637,36	10344,29
637,41	11126,61
637,45	11042,65
637,50	11075,41
637,54	11444,05
637,59	11554,64
637,63	12238,66
637,68	12482,37
637,72	12797,76
637,77	11630,41
637,81	10848,09
637,86	10643,29
637,90	11222,87
637,95	11560,78
637,99	11659,09
638,04	12236,61
638,08	12005,19
638,13	11890,51
638,17	11675,47
638,22	11714,38
638,26	11485,01
638,31	11413,33
638,35	10950,49
638,40	10766,17
638,45	10884,95
638,49	11280,21
638,54	11317,08
638,58	11292,50
638,63	11562,83
638,67	12470,08
638,72	12558,14
638,76	11968,33
638,81	11519,82
638,85	11360,08
638,90	11913,03
638,94	12875,58
638,99	12803,90
639,03	12296,00
639,08	12582,72
639,12	12871,48
639,17	12386,12
639,21	11595,60
639,26	11204,44
639,30	10563,42
639,35	10440,54
639,39	10504,03
639,44	10749,79
639,48	11403,09
639,53	11255,64
639,57	11814,73
639,62	11698,00
639,66	11992,90
639,70	11798,35
639,75	11620,17
639,79	10321,76
639,84	9971,56
639,88	10260,32
639,93	10307,43
639,97	10377,06
640,02	10747,74
640,06	10667,87
640,11	11216,72
640,15	11351,89
640,20	11366,23
640,24	11333,46
640,29	11143,00
640,33	11446,10
640,38	11429,71
640,42	10887,00
640,47	11528,02
640,51	11554,64
640,56	11349,84
640,60	11030,36
640,65	11657,04
640,69	11765,58
640,73	11292,50
640,78	9752,43
640,82	9729,90
640,87	9660,27
640,91	9629,55
640,96	9193,33
641,00	9430,90
641,05	9523,05
641,09	9564,01
641,14	9664,36
641,18	9824,11
641,23	10297,19
641,27	10631,01
641,32	10952,54
641,36	10962,78
641,40	10090,34
641,45	9863,02
641,49	9715,56
641,54	9660,27
641,58	9828,20
641,63	9670,51
641,67	9713,52
641,72	9828,20
641,76	10393,44
641,80	10499,94
641,85	11165,53
641,89	11587,41
641,94	10786,65
641,98	10114,92
642,03	10033,00
642,07	9826,15
642,12	9523,05
642,16	9523,05
642,20	10639,20
642,25	11724,62
642,29	11611,98
642,34	11894,60
642,38	12273,48
642,43	11923,27
642,47	11865,93
642,52	11593,55
642,56	10628,96
642,60	10360,67
642,65	10063,72
642,69	9336,69
642,74	9211,76
642,78	9117,56
642,83	9744,24
642,87	10178,40
642,91	10653,53
642,96	10768,22
643,00	11231,06
643,05	11267,92
643,09	10577,76
643,14	10717,02
643,18	10794,84
643,22	11067,22
643,27	11646,80
643,31	11390,80
643,36	11040,60
643,40	10170,21
643,45	10190,69
643,49	9971,56
643,53	9965,42
643,58	10202,98
643,62	10446,69
643,67	10504,03
643,71	10999,64
643,75	11065,18
643,80	11130,71
643,84	10776,41
643,89	10340,19
643,93	10078,05
643,97	10069,86
644,02	10239,84
644,06	9928,55
644,11	10092,39
644,15	10295,14
644,19	10684,25
644,24	10119,01
644,28	9772,91
644,33	9217,91
644,37	9168,76
644,42	9836,39
644,46	10213,22
644,50	10033,00
644,55	10807,13
644,59	11061,08
644,63	11020,12
644,68	10682,20
644,72	10377,06
644,77	9844,59
644,81	9359,22
644,85	8959,86
644,90	8732,54
644,94	9152,37
644,99	9604,97
645,03	9658,22
645,07	9625,45
645,12	9846,63
645,16	9930,60
645,21	9697,13
645,25	9316,21
645,29	9140,08
645,34	9523,05
645,38	9498,48
645,42	9252,72
645,47	9551,73
645,51	10149,73
645,56	10616,67
645,60	10338,15
645,64	9850,73
645,69	9748,33
645,73	10135,40
645,77	9881,45
645,82	9588,59
645,86	9211,76
645,91	9011,06
645,95	8578,94
645,99	8597,37
646,04	9140,08
646,08	9537,39
646,12	9652,08
646,17	9150,32
646,21	9222,00
646,26	9760,62
646,30	10002,28
646,34	10055,53
646,39	9475,95
646,43	8806,27
646,47	8849,27
646,52	9303,92
646,56	9299,83
646,60	9258,87
646,65	9123,70
646,69	9113,46
646,73	9152,37
646,78	9791,34
646,82	9217,91
646,87	8812,41
646,91	8599,42
646,95	9002,87
647,00	9170,80
647,04	9443,18
647,08	9680,75
647,13	9797,48
647,17	10119,01
647,21	10061,67
647,26	10348,39
647,30	10739,55
647,34	10626,91
647,39	10211,17
647,43	9779,05
647,47	9537,39
647,52	9256,82
647,56	8978,30
647,60	8775,55
647,65	8515,45
647,69	8288,13
647,73	8572,80
647,78	8554,37
647,82	9097,08
647,86	9228,15
647,91	9357,17
647,95	9084,79
647,99	8669,05
648,04	8396,67
648,08	8597,37
648,12	8419,20
648,17	8374,14
648,21	8894,33
648,25	8832,89
648,30	8857,46
648,34	8673,15
648,38	8560,51
648,43	8941,43
648,47	9115,51
648,51	8806,27
648,56	8107,91
648,60	7925,64
648,64	8458,11
648,69	9127,80
648,73	9033,59
648,77	8941,43
648,82	9510,77
648,86	9932,65
648,90	10016,62
648,95	9437,04
648,99	9289,59
649,03	9047,93
649,07	8755,07
649,12	8488,83
649,16	8509,31
649,20	8646,52
649,25	8368,00
649,29	8138,63
649,33	7708,55
649,38	7653,26
649,42	7667,60
649,46	7741,32
649,51	8363,90
649,55	8525,69
649,59	8318,85
649,63	7665,55
649,68	7591,82
649,72	7671,69
649,76	7681,93
649,81	7933,83
649,85	7905,16
649,89	8216,45
649,93	8955,77
649,98	8716,15
650,02	9080,69
650,06	9858,92
650,11	9453,42
650,15	9572,21
650,19	9527,15
650,24	9543,53
650,28	8841,08
650,32	8556,41
650,36	8439,68
650,41	8187,78
650,45	8529,79
650,49	7952,26
650,54	8030,09
650,58	8075,14
650,62	7815,05
650,66	7511,95
650,71	7835,53
650,75	7980,93
650,79	8300,42
650,83	8607,61
650,88	8642,43
650,92	8798,07
650,96	8071,04
651,01	7649,16
651,05	7708,55
651,09	7913,35
651,13	8466,30
651,18	8419,20
651,22	8619,90
651,26	8537,98
651,30	8554,37
651,35	8525,69
651,39	7540,62
651,43	8159,11
651,48	8970,10
651,52	8507,26
651,56	8951,67
651,60	8607,61
651,65	8402,82
651,69	8724,35
651,73	8828,79
651,77	8425,34
651,82	8204,16
651,86	7942,02
651,90	8009,61
651,94	7821,19
651,99	7860,10
652,03	8079,24
652,07	8533,89
652,11	8757,11
652,16	8603,52
652,20	8540,03
652,24	8421,25
652,28	8533,89
652,33	8458,11
652,37	8286,08
652,41	7919,50
652,45	8058,76
652,50	7595,92
652,54	7409,55
652,58	7624,59
652,62	7823,24
652,67	8089,48
652,71	7987,08
652,75	7491,47
652,79	7686,03
652,84	7997,32
652,88	7991,17
652,92	7757,71
652,96	7726,99
653,00	7716,75
653,05	7532,43
653,09	7448,46
653,13	7073,68
653,17	7104,40
653,22	7432,08
653,26	8058,76
653,30	8136,58
653,34	8253,31
653,39	8001,41
653,43	7458,70
653,47	7724,94
653,51	8220,55
653,55	8363,90
653,60	7991,17
653,64	7815,05
653,68	7800,71
653,72	8349,57
653,77	8456,06
653,81	8161,16
653,85	7618,44
653,89	7827,34
653,93	8044,42
653,98	8071,04
654,02	7851,91
654,06	7507,85
654,10	7341,97
654,14	7196,56
654,19	7565,20
654,23	7425,93
654,27	7501,71
654,31	7585,68
654,35	7550,86
654,40	8249,22
654,44	8517,50
654,48	7982,98
654,52	7694,22
654,57	7679,88
654,61	7563,15
654,65	7726,99
654,69	7761,80
654,73	7843,72
654,78	7516,05
654,82	6938,52
654,86	6795,16
654,90	6813,59
654,94	7681,93
654,98	7923,59
655,03	7792,52
655,07	7749,51
655,11	7784,33
655,15	7876,49
655,19	7939,97
655,24	7731,08
655,28	7649,16
655,32	7843,72
655,36	8341,38
655,40	8513,41
655,45	7991,17
655,49	7522,19
655,53	7083,92
655,57	6881,18
655,61	7499,66
655,65	8447,87
655,70	8456,06
655,74	7890,82
655,78	7061,40
655,82	7225,23
655,86	7128,98
655,91	7399,31
655,95	6752,15
655,99	6569,88
656,03	6229,92
656,07	6401,95
656,11	7022,48
656,16	7403,41
656,20	7151,51
656,24	7362,45
656,28	8200,07
656,32	8400,77
656,36	8116,10
656,41	7522,19
656,45	7137,17
656,49	7106,45
656,53	7436,17
656,57	7671,69
656,61	7845,77
656,66	7165,84
656,70	7067,54
656,74	7077,78
656,78	6408,09
656,82	6254,50
656,86	6610,84
656,91	6868,89
656,95	6715,29
656,99	6401,95
657,03	6549,40
657,07	7081,88
657,11	6999,96
657,15	6590,36
657,20	6655,90
657,24	7360,40
657,28	7786,38
657,32	7741,32
657,36	7802,76
657,40	7503,76
657,44	6858,65
657,49	6596,51
657,53	6793,11
657,57	6332,32
657,61	6045,60
657,65	6051,75
657,69	6084,52
657,73	6567,84
657,78	6397,85
657,82	6696,86
657,86	6442,91
657,90	6731,67
657,94	6997,91
657,98	7233,43
658,02	7196,56
658,07	7440,27
658,11	7176,08
658,15	7122,84
658,19	7028,63
658,23	7282,58
658,27	7192,47
658,31	6610,84
658,35	6248,35
658,40	5859,24
658,44	6064,04
658,48	6545,31
658,52	6334,37
658,56	6049,70
658,60	6352,80
658,64	6674,33
658,68	7014,29
658,73	6739,87
658,77	6553,50
658,81	6399,90
658,85	6307,74
658,89	6487,96
658,93	6768,54
658,97	7030,68
659,01	6444,96
659,06	6754,20
659,10	7061,40
659,14	6922,13
659,18	6948,76
659,22	7126,93
659,26	7260,05
659,30	7006,10
659,34	6811,54
659,38	6842,26
659,42	6717,34
659,47	6547,36
659,51	6524,83
659,55	6573,98
659,59	6416,29
659,63	6475,68
659,67	6698,91
659,71	6895,51
659,75	6598,56
659,79	6377,37
659,83	6369,18
659,88	6494,11
659,92	6504,35
659,96	6330,27
660,00	6780,82
660,04	6512,54
660,08	6490,01
660,12	6215,59
660,16	6510,49
660,20	6907,80
660,24	7210,90
660,28	6485,92
660,33	6764,44
660,37	6530,97
660,41	6340,51
660,45	6074,28
660,49	6649,75
660,53	6817,69
660,57	6614,94
660,61	6164,39
660,65	6092,71
660,69	5920,68
660,73	5818,28
660,77	5490,60
660,82	6211,49
660,86	6766,49
660,90	6412,19
660,94	6490,01
660,98	6410,14
661,02	6412,19
661,06	6389,66
661,10	6152,10
661,14	6129,57
661,18	6080,42
661,22	6205,35
661,26	6217,63
661,30	5816,23
661,34	5674,92
661,39	5916,58
661,43	6250,40
661,47	6236,06
661,51	6047,65
661,55	5912,49
661,59	6031,27
661,63	5662,63
661,67	5857,19
661,71	5523,37
661,75	5664,68
661,79	5638,06
661,83	5887,91
661,87	5703,59
661,91	6422,43
661,95	6520,73
661,99	6479,77
662,03	6358,94
662,08	6909,85
662,12	6924,18
662,16	6467,49
662,20	6172,58
662,24	6055,84
662,28	5791,66
662,32	5689,26
662,36	5601,19
662,40	5595,05
662,44	5769,13
662,48	6051,75
662,52	5986,21
662,56	5570,47
662,60	5957,54
662,64	5902,25
662,68	5900,20
662,72	6281,12
662,76	6447,01
662,80	6586,27
662,84	6307,74
662,88	6191,01
662,92	5781,42
662,96	5484,46
663,00	5453,74
663,04	5687,21
663,09	5732,26
663,13	5998,50
663,17	6201,25
663,21	6170,53
663,25	6135,71
663,29	6315,94
663,33	6557,60
663,37	6381,47
663,41	6297,50
663,45	6045,60
663,49	6139,81
663,53	5992,36
663,57	5869,48
663,61	6008,74
663,65	573,43
663,69	6305,70
663,73	6109,09
663,77	6225,83
663,81	6227,87
663,85	5930,92
663,89	5758,89
663,93	5633,96
663,97	5785,51
664,01	5900,20
664,05	5593,00
664,09	5773,22
664,13	5463,98
664,17	6004,64
664,21	6041,51
664,25	5939,11
664,29	5951,40
664,33	5863,33
664,37	5814,18
664,41	5554,09
664,45	5468,08
664,49	5644,20
664,53	5713,83
664,57	5564,33
664,61	5418,93
664,65	5408,69
664,69	5658,54
664,73	5511,08
664,77	5353,39
664,81	5447,60
664,85	5574,57
664,89	5767,08
664,93	5494,70
664,97	5582,76
665,01	5570,48
665,05	5797,80
665,09	5500,84
665,13	5558,19
665,17	5449,64
665,21	5492,65
665,25	5230,51
665,29	5185,46
665,33	5081,01
665,37	5040,05
665,41	4970,42
665,45	4734,90
665,49	4865,97
665,53	5181,36
665,57	5259,18
665,61	5420,97
665,65	5244,85
665,69	5418,93
665,73	5355,44
665,77	5240,75
665,81	5402,54
665,85	5494,70
665,89	5644,20
665,92	5611,43
665,96	5250,99
666,00	5140,40
666,04	5478,32
666,08	5586,86
666,12	5595,05
666,16	5459,88
666,20	5113,78
666,24	5081,01
666,28	5101,49
666,32	5009,33
666,36	5519,28
666,40	5506,99
666,44	5253,04
666,48	5128,11
666,52	5154,74
666,56	4857,78
666,60	4761,53
666,64	5138,35
666,68	4489,15
666,72	4657,08
666,76	4511,68
666,80	4880,31
666,84	4851,64
666,88	4749,24
666,91	5232,56
666,95	5318,57
666,99	5408,69
667,03	5242,80
667,07	5001,14
667,11	4890,55
667,15	4816,82
667,19	4730,81
667,23	4863,93
667,27	5126,07
667,31	5367,73
667,35	5638,06
667,39	5601,19
667,43	5822,38
667,47	5732,26
667,51	5881,77
667,55	5517,23
667,58	5617,58
667,62	5638,06
667,66	5615,53
667,70	5423,02
667,74	5072,82
667,78	5009,33
667,82	5160,88
667,86	4917,17
667,90	5107,63
667,94	5199,79
667,98	5040,05
668,02	5210,03
668,06	5158,83
668,10	4614,07
668,13	4626,36
668,17	4640,70
668,21	4927,41
668,25	5148,59
668,29	5085,11
668,33	4970,42
668,37	4888,50
668,41	5070,77
668,45	4923,32
668,49	5019,57
668,53	5236,66
668,57	5132,21
668,60	4818,87
668,64	4986,80
668,68	5314,48
668,72	5119,92
668,76	4859,83
668,80	4779,96
668,84	4687,80
668,88	4628,41
668,92	4515,77
668,96	4515,77
669,00	4644,79
669,03	4833,21
669,07	4843,45
669,11	4800,44
669,15	4593,59
669,19	4960,18
669,23	4923,32
669,27	4794,29
669,31	4706,23
669,35	4487,10
669,39	4382,65
669,42	4331,45
669,46	4161,47
669,50	4014,02
669,54	3991,49
669,58	4259,78
669,62	4323,26
669,66	4435,90
669,70	4593,59
669,74	4569,02
669,78	4652,98
669,81	4767,67
669,85	4749,24
669,89	4708,28
669,93	4648,89
669,97	4655,03
670,01	4675,51
670,05	4444,09
670,09	4409,28
670,12	4169,66
670,16	4376,51
670,20	4331,45
670,24	4495,29
670,28	4460,48
670,32	4429,76
670,36	4274,11
670,40	4466,62
670,43	4054,98
670,47	4227,01
670,51	4085,70
670,55	4200,38
670,59	4093,89
670,63	4147,14
670,67	4347,84
670,71	4274,11
670,74	4333,50
670,78	4405,18
670,82	4274,11
670,86	4288,45
670,90	4052,93
670,94	4333,50
670,98	4487,10
671,01	4464,57
671,05	4323,26
671,09	4339,65
671,13	4612,03
671,17	4499,39
671,21	4435,90
671,25	4079,55
671,28	3934,15
671,32	3880,90
671,36	3903,43
671,40	4003,78
671,44	3979,20
671,48	4018,11
671,52	4032,45
671,55	4368,32
671,59	4212,67
671,63	4358,08
671,67	4151,23
671,71	4315,07
671,75	4026,31
671,79	4200,38
671,82	4073,41
671,86	3948,48
671,90	3786,69
671,94	3665,86
>>>>>End Processed Spectral Data<<<<<
