SpectraSuite Datei
++++++++++++++++++++++++++++++++++++
Datum: Wed Nov 28 10:22:35 CET 2018
Benutzer: Raman
Dark-Spektrum vorhanden: Ja
Referenz-Spektrum vorhanden: Nein
Zahl der probierten Teilspektren: 1
Spektrometer: USB4F00098
Integrationszeit (usec): 1000000 (USB4F00098)
Spektren Durchschnitt berechnet: 1 (USB4F00098)
Boxcar Glättung: 0 (USB4F00098)
Dunkelstromkorrektur: Nein (USB4F00098)
Puls/Lampe aktiviert: Nein (USB4F00098)
Correct for Detector Non-linearity: Nein (USB4F00098)
Streulichtkorrektur: Nein (USB4F00098)
Anzahl Pixel in verarbeitetem Spektrum: 3648
>>>>>Begin Processed Spectral Data<<<<<
476,77	10,24
476,84	10,24
476,91	10,24
476,98	-8,19
477,04	38,91
477,11	55,30
477,18	-2,05
477,25	-92,16
477,32	-69,63
477,39	71,68
477,45	-20,48
477,52	38,91
477,59	45,06
477,66	-71,68
477,73	-61,44
477,80	-6,14
477,86	-69,63
477,93	-63,49
478,00	36,86
478,07	-86,01
478,14	-67,58
478,21	-30,72
478,27	34,82
478,34	-40,96
478,41	63,49
478,48	45,06
478,55	-81,92
478,62	14,34
478,68	-65,53
478,75	71,68
478,82	-47,10
478,89	0,00
478,96	-26,62
479,02	36,86
479,09	71,68
479,16	14,34
479,23	16,38
479,30	-40,96
479,37	69,63
479,43	-51,20
479,50	-110,59
479,57	-4,10
479,64	-6,14
479,71	-12,29
479,77	-108,54
479,84	-88,06
479,91	-12,29
479,98	-69,63
480,05	28,67
480,11	30,72
480,18	-38,91
480,25	96,25
480,32	67,58
480,39	-65,53
480,45	-104,45
480,52	-30,72
480,59	94,21
480,66	34,82
480,73	92,16
480,79	57,34
480,86	10,24
480,93	8,19
481,00	79,87
481,07	-43,01
481,13	-88,06
481,20	4,10
481,27	-8,19
481,34	55,30
481,41	-8,19
481,47	-55,30
481,54	4,10
481,61	-73,73
481,68	63,49
481,74	-28,67
481,81	6,14
481,88	81,92
481,95	59,39
482,02	4,10
482,08	28,67
482,15	157,69
482,22	-18,43
482,29	-51,20
482,35	100,35
482,42	-65,53
482,49	-118,78
482,56	-18,43
482,63	79,87
482,69	79,87
482,76	-18,43
482,83	14,34
482,90	-2,05
482,96	28,67
483,03	73,73
483,10	43,01
483,17	-8,19
483,24	-40,96
483,30	-49,15
483,37	-4,10
483,44	59,39
483,51	-30,72
483,57	-92,16
483,64	14,34
483,71	-143,36
483,78	55,30
483,84	-26,62
483,91	-4,10
483,98	-12,29
484,05	-2,05
484,11	-114,69
484,18	0,00
484,25	26,62
484,32	26,62
484,38	10,24
484,45	49,15
484,52	2,05
484,59	28,67
484,65	67,58
484,72	-49,15
484,79	43,01
484,86	-20,48
484,92	8,19
484,99	-43,01
485,06	-4,10
485,13	-22,53
485,19	4,10
485,26	-38,91
485,33	22,53
485,40	61,44
485,46	-67,58
485,53	8,19
485,60	81,92
485,67	40,96
485,73	51,20
485,80	6,14
485,87	34,82
485,94	43,01
486,00	55,30
486,07	145,41
486,14	102,40
486,20	8,19
486,27	-77,82
486,34	-71,68
486,41	-86,01
486,47	120,83
486,54	14,34
486,61	-139,26
486,68	26,62
486,74	18,43
486,81	-122,88
486,88	-12,29
486,94	88,06
487,01	-100,35
487,08	8,19
487,15	-63,49
487,21	16,38
487,28	116,73
487,35	-30,72
487,41	40,96
487,48	-61,44
487,55	53,25
487,62	-10,24
487,68	0,00
487,75	-34,82
487,82	-6,14
487,88	-22,53
487,95	0,00
488,02	-20,48
488,09	30,72
488,15	-12,29
488,22	73,73
488,29	6,14
488,35	-12,29
488,42	63,49
488,49	6,14
488,56	-45,06
488,62	143,36
488,69	-49,15
488,76	-75,77
488,82	-30,72
488,89	-126,97
488,96	-10,24
489,02	-18,43
489,09	-38,91
489,16	8,19
489,22	-98,30
489,29	53,25
489,36	-22,53
489,43	-124,93
489,49	73,73
489,56	45,06
489,63	-26,62
489,69	53,25
489,76	-77,82
489,83	-28,67
489,89	-63,49
489,96	-22,53
490,03	-65,53
490,09	-59,39
490,16	-73,73
490,23	-8,19
490,29	-102,40
490,36	12,29
490,43	-196,61
490,50	-20,48
490,56	51,20
490,63	-32,77
490,70	18,43
490,76	-12,29
490,83	73,73
490,90	98,30
490,96	-40,96
491,03	12,29
491,10	-34,82
491,16	32,77
491,23	-34,82
491,30	-32,77
491,36	57,34
491,43	-104,45
491,50	-71,68
491,56	-4,10
491,63	77,82
491,70	92,16
491,76	4,10
491,83	28,67
491,90	-6,14
491,96	10,24
492,03	-4,10
492,10	20,48
492,16	20,48
492,23	100,35
492,30	118,78
492,36	192,51
492,43	-6,14
492,50	86,01
492,56	34,82
492,63	-53,25
492,70	20,48
492,76	-26,62
492,83	-2,05
492,89	-24,58
492,96	-26,62
493,03	-32,77
493,09	-18,43
493,16	-51,20
493,23	32,77
493,29	-38,91
493,36	26,62
493,43	22,53
493,49	-71,68
493,56	22,53
493,63	-24,58
493,69	-4,10
493,76	24,58
493,82	-55,30
493,89	-26,62
493,96	-38,91
494,02	-45,06
494,09	-57,34
494,16	59,39
494,22	-26,62
494,29	-16,38
494,36	-32,77
494,42	-18,43
494,49	-126,97
494,55	8,19
494,62	8,19
494,69	-108,54
494,75	-69,63
494,82	-61,44
494,89	-108,54
494,95	26,62
495,02	-32,77
495,08	-18,43
495,15	-28,67
495,22	-2,05
495,28	-114,69
495,35	65,53
495,42	-26,62
495,48	100,35
495,55	-18,43
495,61	-92,16
495,68	-24,58
495,75	57,34
495,81	22,53
495,88	-81,92
495,94	-32,77
496,01	34,82
496,08	-2,05
496,14	14,34
496,21	-16,38
496,28	-90,11
496,34	26,62
496,41	-65,53
496,47	-32,77
496,54	45,06
496,61	-22,53
496,67	-104,45
496,74	73,73
496,80	-73,73
496,87	-59,39
496,94	104,45
497,00	81,92
497,07	75,77
497,13	-2,05
497,20	-104,45
497,27	-94,21
497,33	-73,73
497,40	106,49
497,46	-20,48
497,53	163,84
497,60	-20,48
497,66	2,05
497,73	-83,97
497,79	22,53
497,86	-49,15
497,93	-6,14
497,99	-73,73
498,06	8,19
498,12	-49,15
498,19	36,86
498,25	116,73
498,32	-36,86
498,39	-10,24
498,45	2,05
498,52	69,63
498,58	-2,05
498,65	98,30
498,72	-20,48
498,78	49,15
498,85	53,25
498,91	-2,05
498,98	-51,20
499,04	-49,15
499,11	-6,14
499,18	-24,58
499,24	67,58
499,31	6,14
499,37	10,24
499,44	-61,44
499,50	8,19
499,57	20,48
499,64	-102,40
499,70	-47,10
499,77	-67,58
499,83	-59,39
499,90	26,62
499,96	-49,15
500,03	104,45
500,09	-22,53
500,16	43,01
500,23	4,10
500,29	16,38
500,36	-28,67
500,42	20,48
500,49	-36,86
500,55	67,58
500,62	0,00
500,68	-120,83
500,75	75,77
500,82	59,39
500,88	20,48
500,95	65,53
501,01	-4,10
501,08	47,10
501,14	124,93
501,21	210,94
501,27	567,29
501,34	813,04
501,41	745,46
501,47	987,12
501,54	1234,93
501,60	968,69
501,67	1124,33
501,73	620,53
501,80	661,49
501,86	614,39
501,93	464,89
501,99	417,79
502,06	311,29
502,12	-69,63
502,19	71,68
502,26	108,54
502,32	114,69
502,39	-20,48
502,45	53,25
502,52	-45,06
502,58	38,91
502,65	4,10
502,71	118,78
502,78	59,39
502,84	-14,34
502,91	-10,24
502,97	141,31
503,04	81,92
503,10	-71,68
503,17	38,91
503,23	-49,15
503,30	63,49
503,37	34,82
503,43	106,49
503,50	53,25
503,56	16,38
503,63	43,01
503,69	108,54
503,76	67,58
503,82	73,73
503,89	71,68
503,95	90,11
504,02	55,30
504,08	-38,91
504,15	-22,53
504,21	-22,53
504,28	6,14
504,34	71,68
504,41	-61,44
504,47	-10,24
504,54	12,29
504,60	65,54
504,67	49,15
504,73	-16,38
504,80	16,38
504,86	83,97
504,93	-49,15
504,99	-104,45
505,06	92,16
505,12	-26,62
505,19	-40,96
505,25	-147,45
505,32	112,64
505,38	14,34
505,45	-18,43
505,51	14,34
505,58	-49,15
505,64	-79,87
505,71	18,43
505,77	-40,96
505,84	16,38
505,90	43,01
505,97	43,01
506,03	-65,54
506,10	75,77
506,16	-55,30
506,23	38,91
506,29	-4,10
506,36	-86,01
506,42	47,10
506,49	36,86
506,55	-22,53
506,62	-96,25
506,68	-16,38
506,75	-12,29
506,81	-10,24
506,87	-81,92
506,94	-94,21
507,00	-67,58
507,07	-22,53
507,13	32,77
507,20	-38,91
507,26	-135,17
507,33	-16,38
507,39	65,54
507,46	-83,97
507,52	-67,58
507,59	-8,19
507,65	-59,39
507,72	-34,82
507,78	112,64
507,85	40,96
507,91	-49,15
507,97	40,96
508,04	-20,48
508,10	-34,82
508,17	-129,02
508,23	73,73
508,30	-57,34
508,36	-63,49
508,43	77,82
508,49	-30,72
508,56	-81,92
508,62	47,10
508,69	28,67
508,75	-96,25
508,81	-55,30
508,88	34,82
508,94	-65,53
509,01	-57,34
509,07	-12,29
509,14	-38,91
509,20	-20,48
509,27	-81,92
509,33	2,05
509,39	-8,19
509,46	-2,05
509,52	47,10
509,59	-16,38
509,65	-43,01
509,72	-149,50
509,78	32,77
509,85	26,62
509,91	4,10
509,97	16,38
510,04	4,10
510,10	34,82
510,17	36,86
510,23	-36,86
510,30	16,38
510,36	-36,86
510,42	53,25
510,49	-22,53
510,55	-24,58
510,62	169,98
510,68	-32,77
510,75	59,39
510,81	18,43
510,88	-10,24
510,94	0,00
511,00	-24,58
511,07	53,25
511,13	18,43
511,20	47,10
511,26	-12,29
511,32	-12,29
511,39	-67,58
511,45	0,00
511,52	-18,43
511,58	-45,06
511,65	98,30
511,71	-30,72
511,77	165,89
511,84	22,53
511,90	49,15
511,97	92,16
512,03	-83,97
512,09	-112,64
512,16	-65,54
512,22	-20,48
512,29	4,10
512,35	-22,53
512,42	-26,62
512,48	-67,58
512,54	-28,67
512,61	-57,34
512,67	22,53
512,74	-40,96
512,80	-63,49
512,86	-102,40
512,93	6,14
512,99	-32,77
513,06	32,77
513,12	65,53
513,18	-40,96
513,25	26,62
513,31	83,97
513,38	49,15
513,44	-55,30
513,50	24,58
513,57	14,34
513,63	38,91
513,69	-40,96
513,76	38,91
513,82	34,82
513,89	-36,86
513,95	137,21
514,01	-22,53
514,08	-4,10
514,14	-22,53
514,21	-14,34
514,27	94,21
514,33	45,06
514,40	-120,83
514,46	32,77
514,53	-159,74
514,59	-51,20
514,65	32,77
514,72	83,97
514,78	-141,31
514,84	75,77
514,91	-69,63
514,97	-47,10
515,04	-20,48
515,10	-30,72
515,16	114,69
515,23	18,43
515,29	-18,43
515,35	12,29
515,42	116,73
515,48	-133,12
515,54	61,44
515,61	-102,40
515,67	32,77
515,74	69,63
515,80	30,72
515,86	-45,06
515,93	-14,34
515,99	-65,54
516,05	40,96
516,12	96,25
516,18	-8,19
516,24	51,20
516,31	49,15
516,37	-96,25
516,44	-2,05
516,50	129,02
516,56	24,58
516,63	108,54
516,69	-10,24
516,75	-57,34
516,82	-38,91
516,88	32,77
516,94	81,92
517,01	-16,38
517,07	65,53
517,13	-40,96
517,20	73,73
517,26	20,48
517,32	53,25
517,39	124,93
517,45	-34,82
517,52	10,24
517,58	12,29
517,64	14,34
517,71	110,59
517,77	-16,38
517,83	-47,10
517,90	-102,40
517,96	18,43
518,02	-49,15
518,09	-4,10
518,15	-4,10
518,21	159,74
518,28	-12,29
518,34	-26,62
518,40	98,30
518,47	-28,67
518,53	36,86
518,59	-83,97
518,66	-63,49
518,72	-14,34
518,78	-2,05
518,85	40,96
518,91	-112,64
518,97	-67,58
519,03	26,62
519,10	-16,38
519,16	-18,43
519,22	20,48
519,29	10,24
519,35	8,19
519,41	-116,73
519,48	-65,54
519,54	43,01
519,60	-34,82
519,67	-106,49
519,73	-57,34
519,79	-26,62
519,86	-12,29
519,92	96,25
519,98	-110,59
520,05	-73,73
520,11	-18,43
520,17	67,58
520,23	-30,72
520,30	12,29
520,36	-63,49
520,42	83,97
520,49	-34,82
520,55	14,34
520,61	-51,20
520,68	100,35
520,74	83,97
520,80	-112,64
520,87	-40,96
520,93	22,53
520,99	24,58
521,05	-102,40
521,12	-149,50
521,18	59,39
521,24	34,82
521,31	98,30
521,37	-24,58
521,43	88,06
521,49	-40,96
521,56	-32,77
521,62	10,24
521,68	-40,96
521,75	57,34
521,81	55,30
521,87	-30,72
521,93	43,01
522,00	-30,72
522,06	10,24
522,12	12,29
522,19	-59,39
522,25	6,14
522,31	-40,96
522,37	49,15
522,44	47,10
522,50	-24,58
522,56	-16,38
522,63	88,06
522,69	-34,82
522,75	90,11
522,81	-24,58
522,88	81,92
522,94	-61,44
523,00	4,10
523,06	-63,49
523,13	-40,96
523,19	-86,01
523,25	2,05
523,32	90,11
523,38	-8,19
523,44	8,19
523,50	32,77
523,57	-10,24
523,63	-4,10
523,69	-34,82
523,75	98,30
523,82	10,24
523,88	36,86
523,94	67,58
524,00	2,05
524,07	-40,96
524,13	6,14
524,19	-69,63
524,25	20,48
524,32	-14,34
524,38	-2,05
524,44	14,34
524,50	6,14
524,57	-45,06
524,63	26,62
524,69	-104,45
524,75	-43,01
524,82	-34,82
524,88	-55,30
524,94	-51,20
525,00	51,20
525,07	63,49
525,13	67,58
525,19	40,96
525,25	4,10
525,32	-14,34
525,38	2,05
525,44	-86,01
525,50	-20,48
525,57	-40,96
525,63	-49,15
525,69	69,63
525,75	71,68
525,82	-65,54
525,88	-182,27
525,94	-34,82
526,00	-55,30
526,07	32,77
526,13	20,48
526,19	24,58
526,25	8,19
526,31	-24,58
526,38	106,49
526,44	53,25
526,50	-30,72
526,56	-24,58
526,63	-2,05
526,69	-6,14
526,75	-51,20
526,81	-77,82
526,87	-75,77
526,94	-145,41
527,00	-12,29
527,06	55,30
527,12	73,73
527,19	81,92
527,25	-30,72
527,31	-6,14
527,37	-45,06
527,43	-18,43
527,50	-26,62
527,56	-10,24
527,62	-47,10
527,68	-26,62
527,75	-22,53
527,81	-32,77
527,87	-77,82
527,93	34,82
527,99	32,77
528,06	2,05
528,12	77,82
528,18	6,14
528,24	24,58
528,30	-24,58
528,37	-86,01
528,43	16,38
528,49	-98,30
528,55	-20,48
528,61	28,67
528,68	12,29
528,74	47,10
528,80	43,01
528,86	-129,02
528,92	18,43
528,99	2,05
529,05	10,24
529,11	24,58
529,17	-67,58
529,23	8,19
529,29	20,48
529,36	-32,77
529,42	-10,24
529,48	-145,41
529,54	34,82
529,60	-137,21
529,67	63,49
529,73	-79,87
529,79	61,44
529,85	-96,25
529,91	63,49
529,98	12,29
530,04	98,30
530,10	24,58
530,16	-57,34
530,22	196,61
530,28	104,45
530,35	-92,16
530,41	-20,48
530,47	75,77
530,53	30,72
530,59	114,69
530,65	-2,05
530,72	108,54
530,78	-22,53
530,84	55,30
530,90	16,38
530,96	61,44
531,02	69,63
531,09	-14,34
531,15	6,14
531,21	104,45
531,27	-24,58
531,33	-129,02
531,39	-69,63
531,46	-47,10
531,52	-53,25
531,58	12,29
531,64	59,39
531,70	2,05
531,76	-53,25
531,83	40,96
531,89	-38,91
531,95	55,30
532,01	-6,14
532,07	-22,53
532,13	49,15
532,19	8,19
532,26	-2,05
532,32	-69,63
532,38	116,73
532,44	18,43
532,50	-71,68
532,56	49,15
532,63	-36,86
532,69	-26,62
532,75	88,06
532,81	-114,69
532,87	-32,77
532,93	-2,05
532,99	28,67
533,06	12,29
533,12	0,00
533,18	-45,06
533,24	-34,82
533,30	63,49
533,36	-40,96
533,42	26,62
533,48	-22,53
533,55	-96,25
533,61	-34,82
533,67	-51,20
533,73	81,92
533,79	10,24
533,85	-32,77
533,91	-51,20
533,98	-96,25
534,04	36,86
534,10	-43,01
534,16	45,06
534,22	100,35
534,28	104,45
534,34	-12,29
534,40	2,05
534,47	112,64
534,53	8,19
534,59	-83,97
534,65	14,34
534,71	88,06
534,77	-38,91
534,83	18,43
534,89	-24,58
534,95	-124,93
535,02	-8,19
535,08	-18,43
535,14	-47,10
535,20	-47,10
535,26	22,53
535,32	-18,43
535,38	22,53
535,44	26,62
535,50	-55,30
535,57	6,14
535,63	10,24
535,69	-49,15
535,75	81,92
535,81	4,10
535,87	-65,54
535,93	-112,64
535,99	63,49
536,05	-40,96
536,11	112,64
536,18	-65,54
536,24	-20,48
536,30	20,48
536,36	-10,24
536,42	-32,77
536,48	-49,15
536,54	57,34
536,60	-118,78
536,66	-63,49
536,72	30,72
536,79	-12,29
536,85	-124,93
536,91	0,00
536,97	-45,06
537,03	-90,11
537,09	-18,43
537,15	61,44
537,21	-61,44
537,27	86,01
537,33	81,92
537,39	-47,10
537,45	69,63
537,52	-86,01
537,58	53,25
537,64	34,82
537,70	38,91
537,76	-63,49
537,82	73,73
537,88	-116,73
537,94	-110,59
538,00	-112,64
538,06	163,84
538,12	-94,21
538,18	-77,82
538,24	94,21
538,31	47,10
538,37	-61,44
538,43	-16,38
538,49	0,00
538,55	32,77
538,61	108,54
538,67	-34,82
538,73	-18,43
538,79	-43,01
538,85	-79,87
538,91	-129,02
538,97	26,62
539,03	0,00
539,09	-34,82
539,15	-26,62
539,21	-102,40
539,28	-73,73
539,34	36,86
539,40	65,53
539,46	-30,72
539,52	-55,30
539,58	18,43
539,64	-57,34
539,70	24,58
539,76	-59,39
539,82	-6,14
539,88	47,10
539,94	-30,72
540,00	59,39
540,06	10,24
540,12	51,20
540,18	-22,53
540,24	-96,25
540,30	-53,25
540,36	32,77
540,42	73,73
540,49	18,43
540,55	-96,25
540,61	-12,29
540,67	40,96
540,73	-53,25
540,79	28,67
540,85	-53,25
540,91	-16,38
540,97	-104,45
541,03	-8,19
541,09	18,43
541,15	61,44
541,21	-28,67
541,27	-45,06
541,33	106,49
541,39	59,39
541,45	14,34
541,51	12,29
541,57	10,24
541,63	-49,15
541,69	-24,58
541,75	-61,44
541,81	-102,40
541,87	14,34
541,93	2,05
541,99	-34,82
542,05	-49,15
542,11	-10,24
542,17	-45,06
542,23	-20,48
542,29	-67,58
542,35	16,38
542,41	-71,68
542,47	-51,20
542,53	-36,86
542,59	-24,58
542,65	-8,19
542,71	6,14
542,77	-6,14
542,83	-57,34
542,89	155,65
542,95	24,58
543,01	30,72
543,07	-18,43
543,13	-102,40
543,19	-81,92
543,25	147,45
543,31	169,98
543,37	0,00
543,43	96,25
543,49	49,15
543,55	-145,41
543,61	-112,64
543,67	4,10
543,73	40,96
543,79	157,69
543,85	-28,67
543,91	47,10
543,97	92,16
544,03	14,34
544,09	-10,24
544,15	149,50
544,21	-30,72
544,27	-22,53
544,33	34,82
544,39	-10,24
544,45	69,63
544,51	-51,20
544,57	4,10
544,63	-40,96
544,69	63,49
544,75	-131,07
544,81	-34,82
544,87	-67,58
544,93	-16,38
544,99	-8,19
545,05	20,48
545,11	-32,77
545,17	14,34
545,23	112,64
545,29	20,48
545,35	4,10
545,41	114,69
545,47	40,96
545,53	49,15
545,59	-69,63
545,65	34,82
545,71	-69,63
545,77	-2,05
545,83	-10,24
545,89	53,25
545,95	-63,49
546,01	36,86
546,07	36,86
546,13	-36,86
546,19	59,39
546,25	43,01
546,31	-92,16
546,37	-65,54
546,42	69,63
546,48	-38,91
546,54	55,30
546,60	-96,25
546,66	-24,58
546,72	69,63
546,78	-12,29
546,84	28,67
546,90	79,87
546,96	-51,20
547,02	88,06
547,08	-81,92
547,14	38,91
547,20	51,20
547,26	-14,34
547,32	45,06
547,38	-18,43
547,44	-77,82
547,50	2,05
547,56	12,29
547,62	2,05
547,67	-67,58
547,73	-102,40
547,79	112,64
547,85	-18,43
547,91	63,49
547,97	-2,05
548,03	24,58
548,09	30,72
548,15	49,15
548,21	-38,91
548,27	34,82
548,33	0,00
548,39	4,10
548,45	-71,68
548,51	20,48
548,56	30,72
548,62	-22,53
548,68	-129,02
548,74	-43,01
548,80	-18,43
548,86	8,19
548,92	126,97
548,98	45,06
549,04	-129,02
549,10	-47,10
549,16	16,38
549,22	-100,35
549,28	92,16
549,34	-49,15
549,39	-47,10
549,45	-28,67
549,51	40,96
549,57	63,49
549,63	20,48
549,69	-65,54
549,75	-43,01
549,81	0,00
549,87	-79,87
549,93	26,62
549,99	32,77
550,04	-22,53
550,10	47,10
550,16	-43,01
550,22	139,26
550,28	-18,43
550,34	-86,01
550,40	-88,06
550,46	75,77
550,52	-14,34
550,58	-24,58
550,64	45,06
550,69	-14,34
550,75	2,05
550,81	-24,58
550,87	-40,96
550,93	34,82
550,99	-2,05
551,05	-36,86
551,11	-36,86
551,17	176,13
551,23	-24,58
551,28	-16,38
551,34	-53,25
551,40	-4,10
551,46	-49,15
551,52	-36,86
551,58	-90,11
551,64	0,00
551,70	6,14
551,76	-6,14
551,81	-57,34
551,87	-8,19
551,93	63,49
551,99	26,62
552,05	40,96
552,11	2,05
552,17	69,63
552,23	-18,43
552,28	-86,01
552,34	4,10
552,40	-53,25
552,46	34,82
552,52	-51,20
552,58	-102,40
552,64	-55,30
552,70	-69,63
552,75	28,67
552,81	-112,64
552,87	73,73
552,93	-69,63
552,99	55,30
553,05	0,00
553,11	-10,24
553,17	-110,59
553,22	-4,10
553,28	47,10
553,34	94,21
553,40	-83,97
553,46	-53,25
553,52	-24,58
553,58	-38,91
553,63	-45,06
553,69	83,97
553,75	-102,40
553,81	-34,82
553,87	-2,05
553,93	24,58
553,99	-61,44
554,04	-4,10
554,10	45,06
554,16	-75,77
554,22	108,54
554,28	-71,68
554,34	-34,82
554,40	24,58
554,45	10,24
554,51	28,67
554,57	-98,30
554,63	131,07
554,69	-12,29
554,75	32,77
554,80	-106,49
554,86	96,25
554,92	40,96
554,98	49,15
555,04	20,48
555,10	-104,45
555,16	-10,24
555,21	22,53
555,27	-2,05
555,33	-61,44
555,39	67,58
555,45	-10,24
555,51	-40,96
555,56	0,00
555,62	65,53
555,68	-2,05
555,74	-4,10
555,80	57,34
555,86	0,00
555,91	-53,25
555,97	-69,63
556,03	61,44
556,09	-20,48
556,15	47,10
556,20	-79,87
556,26	-38,91
556,32	-61,44
556,38	34,82
556,44	-10,24
556,50	47,10
556,55	-38,91
556,61	16,38
556,67	61,44
556,73	163,84
556,79	-47,10
556,84	-18,43
556,90	-12,29
556,96	-53,25
557,02	-6,14
557,08	-22,53
557,14	-59,39
557,19	-24,58
557,25	22,53
557,31	28,67
557,37	-12,29
557,43	-75,77
557,48	116,73
557,54	-6,14
557,60	14,34
557,66	55,30
557,72	18,43
557,77	-90,11
557,83	88,06
557,89	-47,10
557,95	124,93
558,01	8,19
558,06	-61,44
558,12	8,19
558,18	-43,01
558,24	-51,20
558,30	40,96
558,35	131,07
558,41	-90,11
558,47	6,14
558,53	-45,06
558,59	-86,01
558,64	-16,38
558,70	-16,38
558,76	-83,97
558,82	88,06
558,88	-30,72
558,93	14,34
558,99	-43,01
559,05	-137,21
559,11	49,15
559,16	-49,15
559,22	8,19
559,28	-79,87
559,34	-32,77
559,40	10,24
559,45	-20,48
559,51	-65,53
559,57	77,82
559,63	36,86
559,68	6,14
559,74	90,11
559,80	-61,44
559,86	0,00
559,92	79,87
559,97	38,91
560,03	14,34
560,09	-47,10
560,15	-30,72
560,20	-26,62
560,26	-22,53
560,32	-96,25
560,38	108,54
560,43	-67,58
560,49	-8,19
560,55	-24,58
560,61	86,01
560,66	98,30
560,72	-22,53
560,78	-61,44
560,84	14,34
560,90	-38,91
560,95	-43,01
561,01	16,38
561,07	-30,72
561,13	-4,10
561,18	-94,21
561,24	38,91
561,30	-18,43
561,36	79,87
561,41	-114,69
561,47	-30,72
561,53	-10,24
561,59	-2,05
561,64	32,77
561,70	-98,30
561,76	49,15
561,82	-55,30
561,87	-24,58
561,93	-4,10
561,99	55,30
562,05	28,67
562,10	124,93
562,16	14,34
562,22	51,20
562,27	-38,91
562,33	47,10
562,39	-49,15
562,45	-94,21
562,50	102,40
562,56	110,59
562,62	10,24
562,68	-4,10
562,73	65,53
562,79	124,93
562,85	-10,24
562,91	-114,69
562,96	-20,48
563,02	-8,19
563,08	-59,39
563,13	43,01
563,19	96,25
563,25	-53,25
563,31	-67,58
563,36	43,01
563,42	-26,62
563,48	-26,62
563,53	83,97
563,59	-24,58
563,65	-24,58
563,71	190,46
563,76	-24,58
563,82	-59,39
563,88	106,49
563,94	-120,83
563,99	45,06
564,05	73,73
564,11	-22,53
564,16	-36,86
564,22	34,82
564,28	-79,87
564,33	-26,62
564,39	30,72
564,45	-4,10
564,51	-47,10
564,56	-18,43
564,62	-14,34
564,68	81,92
564,73	-14,34
564,79	-22,53
564,85	-49,15
564,91	0,00
564,96	55,30
565,02	4,10
565,08	-22,53
565,13	-47,10
565,19	24,58
565,25	24,58
565,30	4,10
565,36	14,34
565,42	-10,24
565,47	-86,01
565,53	-8,19
565,59	12,29
565,65	-110,59
565,70	94,21
565,76	34,82
565,82	69,63
565,87	-26,62
565,93	53,25
565,99	-106,49
566,04	-71,68
566,10	-69,63
566,16	-75,77
566,21	-10,24
566,27	55,30
566,33	-75,77
566,38	59,39
566,44	83,97
566,50	59,39
566,55	16,38
566,61	-18,43
566,67	-65,54
566,73	-43,01
566,78	53,25
566,84	49,15
566,90	-59,39
566,95	57,34
567,01	-24,58
567,07	22,53
567,12	77,82
567,18	73,73
567,24	-49,15
567,29	32,77
567,35	40,96
567,41	-40,96
567,46	-47,10
567,52	155,65
567,58	26,62
567,63	6,14
567,69	-65,54
567,75	-63,49
567,80	-10,24
567,86	38,91
567,91	43,01
567,97	-81,92
568,03	-10,24
568,08	-34,82
568,14	-59,39
568,20	36,86
568,25	67,58
568,31	36,86
568,37	90,11
568,42	-26,62
568,48	16,38
568,54	12,29
568,59	69,63
568,65	-57,34
568,71	2,05
568,76	22,53
568,82	-59,39
568,88	-38,91
568,93	16,38
568,99	102,40
569,04	-106,49
569,10	20,48
569,16	38,91
569,21	71,68
569,27	-55,30
569,33	-32,77
569,38	59,39
569,44	26,62
569,50	36,86
569,55	75,77
569,61	49,15
569,66	61,44
569,72	-10,24
569,78	-43,01
569,83	-67,58
569,89	14,34
569,95	22,53
570,00	131,07
570,06	155,65
570,11	-26,62
570,17	131,07
570,23	92,16
570,28	-149,50
570,34	65,53
570,40	10,24
570,45	-59,39
570,51	28,67
570,56	65,53
570,62	-77,82
570,68	8,19
570,73	-8,19
570,79	-45,06
570,85	-24,58
570,90	67,58
570,96	77,82
571,01	8,19
571,07	8,19
571,13	106,49
571,18	98,30
571,24	-157,69
571,29	-2,05
571,35	-90,11
571,41	-63,49
571,46	-6,14
571,52	36,86
571,57	-51,20
571,63	-59,39
571,69	34,82
571,74	-6,14
571,80	-22,53
571,85	-30,72
571,91	114,69
571,97	-67,58
572,02	-53,25
572,08	43,01
572,13	22,53
572,19	-40,96
572,25	86,01
572,30	28,67
572,36	36,86
572,41	-10,24
572,47	14,34
572,53	-30,72
572,58	69,63
572,64	-36,86
572,69	-75,77
572,75	49,15
572,80	98,30
572,86	20,48
572,92	-26,62
572,97	-32,77
573,03	67,58
573,08	-12,29
573,14	22,53
573,20	96,25
573,25	-20,48
573,31	40,96
573,36	77,82
573,42	6,14
573,47	-83,97
573,53	12,29
573,59	77,82
573,64	6,14
573,70	-28,67
573,75	-79,87
573,81	83,97
573,86	18,43
573,92	-133,12
573,98	4,10
574,03	-57,34
574,09	-34,82
574,14	-20,48
574,20	79,87
574,25	55,30
574,31	36,86
574,37	36,86
574,42	22,53
574,48	51,20
574,53	43,01
574,59	26,62
574,64	20,48
574,70	-24,58
574,75	26,62
574,81	-22,53
574,87	-71,68
574,92	-4,10
574,98	124,93
575,03	106,49
575,09	-83,97
575,14	-14,34
575,20	-83,97
575,25	-18,43
575,31	-49,15
575,37	32,77
575,42	2,05
575,48	94,21
575,53	-122,88
575,59	-69,63
575,64	-28,67
575,70	6,14
575,75	28,67
575,81	8,19
575,86	43,01
575,92	38,91
575,98	26,62
576,03	-12,29
576,09	69,63
576,14	18,43
576,20	0,00
576,25	65,54
576,31	18,43
576,36	-51,20
576,42	18,43
576,47	88,06
576,53	14,34
576,58	-14,34
576,64	-12,29
576,69	30,72
576,75	10,24
576,81	-67,58
576,86	26,62
576,92	92,16
576,97	-61,44
577,03	28,67
577,08	-24,58
577,14	10,24
577,19	-34,82
577,25	53,25
577,30	53,25
577,36	-57,34
577,41	114,69
577,47	-26,62
577,52	59,39
577,58	-43,01
577,63	65,53
577,69	-4,10
577,74	-22,53
577,80	-51,20
577,85	-43,01
577,91	-26,62
577,96	8,19
578,02	88,06
578,07	104,45
578,13	49,15
578,18	-69,63
578,24	16,38
578,29	-30,72
578,35	-10,24
578,40	20,48
578,46	8,19
578,51	30,72
578,57	8,19
578,62	116,73
578,68	-20,48
578,73	-38,91
578,79	-67,58
578,84	77,82
578,90	22,53
578,95	-106,49
579,01	-57,34
579,06	-8,19
579,12	-20,48
579,17	-24,58
579,23	-45,06
579,28	-61,44
579,34	22,53
579,39	-22,53
579,45	98,30
579,50	59,39
579,56	-24,58
579,61	10,24
579,67	18,43
579,72	53,25
579,78	135,17
579,83	-40,96
579,89	-63,49
579,94	90,11
580,00	14,34
580,05	-55,30
580,11	0,00
580,16	34,82
580,22	49,15
580,27	147,45
580,32	18,43
580,38	63,49
580,43	47,10
580,49	8,19
580,54	-26,62
580,60	65,54
580,65	30,72
580,71	-47,10
580,76	2,05
580,82	51,20
580,87	-6,14
580,93	2,05
580,98	34,82
581,04	49,15
581,09	151,55
581,14	231,42
581,20	-16,38
581,25	-2,05
581,31	10,24
581,36	24,58
581,42	-45,06
581,47	-67,58
581,53	18,43
581,58	110,59
581,64	8,19
581,69	34,82
581,75	126,97
581,80	-51,20
581,85	-26,62
581,91	10,24
581,96	0,00
582,02	-124,93
582,07	18,43
582,13	-151,55
582,18	-30,72
582,24	-20,48
582,29	-4,10
582,34	67,58
582,40	-88,06
582,45	79,87
582,51	-86,01
582,56	55,30
582,62	-34,82
582,67	24,58
582,73	120,83
582,78	45,06
582,83	20,48
582,89	-61,44
582,94	51,20
583,00	-22,53
583,05	83,97
583,11	63,49
583,16	79,87
583,21	12,29
583,27	6,14
583,32	32,77
583,38	83,97
583,43	-16,38
583,49	-47,10
583,54	-22,53
583,59	47,10
583,65	55,30
583,70	30,72
583,76	88,06
583,81	26,62
583,87	22,53
583,92	-65,53
583,97	-36,86
584,03	-20,48
584,08	0,00
584,14	-18,43
584,19	30,72
584,24	59,39
584,30	-16,38
584,35	75,77
584,41	63,49
584,46	108,54
584,52	-20,48
584,57	32,77
584,62	-40,96
584,68	-8,19
584,73	86,01
584,79	36,86
584,84	79,87
584,89	65,54
584,95	-61,44
585,00	36,86
585,06	96,25
585,11	32,77
585,16	79,87
585,22	135,17
585,27	-20,48
585,33	-67,58
585,38	-63,49
585,43	-12,29
585,49	4,10
585,54	73,73
585,60	96,25
585,65	59,39
585,70	57,34
585,76	-88,06
585,81	-63,49
585,87	30,72
585,92	10,24
585,97	-16,38
586,03	40,96
586,08	-38,91
586,13	-129,02
586,19	77,82
586,24	53,25
586,30	-16,38
586,35	14,34
586,40	-36,86
586,46	-34,82
586,51	157,69
586,57	51,20
586,62	-49,15
586,67	-26,62
586,73	14,34
586,78	-51,20
586,83	8,19
586,89	-53,25
586,94	-92,16
587,00	61,44
587,05	65,53
587,10	8,19
587,16	8,19
587,21	124,93
587,26	88,06
587,32	514,04
587,37	3084,24
587,42	10473,31
587,48	21923,51
587,53	35462,63
587,59	43550,06
587,64	57136,28
587,69	63175,74
587,75	55985,32
587,80	52370,66
587,85	55954,60
587,91	55905,45
587,96	35325,41
588,01	20283,08
588,07	11859,79
588,12	9627,50
588,17	7206,80
588,23	4888,50
588,28	3014,61
588,34	1597,42
588,39	958,45
588,44	534,52
588,50	374,78
588,55	167,93
588,60	167,93
588,66	149,50
588,71	67,58
588,76	202,75
588,82	32,77
588,87	223,23
588,92	112,64
588,98	79,87
589,03	110,59
589,08	71,68
589,14	14,34
589,19	-30,72
589,24	-51,20
589,30	194,56
589,35	-49,15
589,40	57,34
589,46	55,30
589,51	-92,16
589,56	98,30
589,62	20,48
589,67	4,10
589,72	83,97
589,78	155,65
589,83	26,62
589,88	34,82
589,94	-28,67
589,99	102,40
590,04	-45,06
590,10	81,92
590,15	-63,49
590,20	-81,92
590,26	65,53
590,31	77,82
590,36	45,06
590,42	61,44
590,47	-55,30
590,52	36,86
590,58	24,58
590,63	-6,14
590,68	-45,06
590,74	8,19
590,79	61,44
590,84	10,24
590,89	133,12
590,95	-88,06
591,00	49,15
591,05	-30,72
591,11	100,35
591,16	16,38
591,21	-12,29
591,27	59,39
591,32	-2,05
591,37	-16,38
591,43	47,10
591,48	-22,53
591,53	8,19
591,58	-90,11
591,64	-28,67
591,69	-12,29
591,74	102,40
591,80	38,91
591,85	-6,14
591,90	6,14
591,96	77,82
592,01	22,53
592,06	-34,82
592,11	-96,25
592,17	0,00
592,22	-129,02
592,27	63,49
592,33	-6,14
592,38	-24,58
592,43	34,82
592,48	83,97
592,54	30,72
592,59	-51,20
592,64	-69,63
592,70	-81,92
592,75	-59,39
592,80	-32,77
592,85	-47,10
592,91	100,35
592,96	34,82
593,01	28,67
593,07	92,16
593,12	-124,93
593,17	4,10
593,22	18,43
593,28	65,54
593,33	10,24
593,38	61,44
593,44	73,73
593,49	-22,53
593,54	30,72
593,59	4,10
593,65	126,97
593,70	24,58
593,75	110,59
593,80	-88,06
593,86	-67,58
593,91	-22,53
593,96	-22,53
594,01	-88,06
594,07	-30,72
594,12	-126,97
594,17	-24,58
594,23	-57,34
594,28	-47,10
594,33	-71,68
594,38	65,54
594,44	-2,05
594,49	2,05
594,54	10,24
594,59	43,01
594,65	-32,77
594,70	8,19
594,75	20,48
594,80	-14,34
594,86	45,06
594,91	77,82
594,96	2,05
595,01	-34,82
595,07	69,63
595,12	-69,63
595,17	69,63
595,22	18,43
595,28	-108,54
595,33	8,19
595,38	-6,14
595,43	86,01
595,49	-45,06
595,54	6,14
595,59	-14,34
595,64	14,34
595,69	26,62
595,75	28,67
595,80	26,62
595,85	102,40
595,90	-12,29
595,96	-6,14
596,01	-43,01
596,06	83,97
596,11	51,20
596,17	61,44
596,22	38,91
596,27	129,02
596,32	-14,34
596,38	-75,77
596,43	-28,67
596,48	8,19
596,53	-92,16
596,58	-32,77
596,64	-169,98
596,69	30,72
596,74	51,20
596,79	16,38
596,85	47,10
596,90	-94,21
596,95	-45,06
597,00	65,54
597,05	18,43
597,11	57,34
597,16	-116,73
597,21	-69,63
597,26	-55,30
597,31	-43,01
597,37	12,29
597,42	-79,87
597,47	-59,39
597,52	-12,29
597,57	20,48
597,63	-104,45
597,68	-45,06
597,73	-122,88
597,78	45,06
597,84	92,16
597,89	34,82
597,94	98,30
597,99	30,72
598,04	2,05
598,10	-98,30
598,15	129,02
598,20	0,00
598,25	10,24
598,30	-45,06
598,36	88,06
598,41	-51,20
598,46	-14,34
598,51	57,34
598,56	81,92
598,61	34,82
598,67	96,25
598,72	-30,72
598,77	92,16
598,82	0,00
598,87	63,49
598,93	98,30
598,98	-38,91
599,03	20,48
599,08	190,46
599,13	63,49
599,19	45,06
599,24	-135,17
599,29	-88,06
599,34	34,82
599,39	88,06
599,44	36,86
599,50	94,21
599,55	86,01
599,60	100,35
599,65	-36,86
599,70	-24,58
599,75	26,62
599,81	4,10
599,86	-122,88
599,91	126,97
599,96	51,20
600,01	-43,01
600,07	-22,53
600,12	-151,55
600,17	8,19
600,22	-14,34
600,27	-122,88
600,32	-65,54
600,38	57,34
600,43	14,34
600,48	-75,77
600,53	61,44
600,58	-92,16
600,63	112,64
600,68	-22,53
600,74	-34,82
600,79	28,67
600,84	-10,24
600,89	116,73
600,94	63,49
600,99	30,72
601,05	169,98
601,10	-24,58
601,15	34,82
601,20	-40,96
601,25	-32,77
601,30	32,77
601,35	0,00
601,41	137,21
601,46	43,01
601,51	24,58
601,56	-55,30
601,61	-45,06
601,66	4,10
601,71	34,82
601,77	-20,48
601,82	-10,24
601,87	32,77
601,92	-69,63
601,97	-32,77
602,02	18,43
602,07	-38,91
602,13	-108,54
602,18	-73,73
602,23	92,16
602,28	49,15
602,33	55,30
602,38	-30,72
602,43	-77,82
602,48	-26,62
602,54	126,97
602,59	67,58
602,64	14,34
602,69	141,31
602,74	-26,62
602,79	-10,24
602,84	-40,96
602,89	-49,15
602,95	18,43
603,00	67,58
603,05	-100,35
603,10	-20,48
603,15	-167,93
603,20	-28,67
603,25	-20,48
603,30	32,77
603,36	-55,30
603,41	-36,86
603,46	-22,53
603,51	-71,68
603,56	38,91
603,61	110,59
603,66	-32,77
603,71	16,38
603,76	24,58
603,82	4,10
603,87	-12,29
603,92	51,20
603,97	61,44
604,02	-165,89
604,07	55,30
604,12	-184,32
604,17	-20,48
604,22	92,16
604,28	112,64
604,33	-98,30
604,38	-10,24
604,43	-28,67
604,48	22,53
604,53	0,00
604,58	-47,10
604,63	14,34
604,68	-18,43
604,73	6,14
604,78	63,49
604,84	24,58
604,89	-28,67
604,94	49,15
604,99	-49,15
605,04	34,82
605,09	53,25
605,14	10,24
605,19	-75,77
605,24	81,92
605,29	-4,10
605,34	112,64
605,40	14,34
605,45	-45,06
605,50	-98,30
605,55	73,73
605,60	-6,14
605,65	65,53
605,70	-26,62
605,75	-110,59
605,80	2,05
605,85	47,10
605,90	-36,86
605,95	-38,91
606,00	28,67
606,06	-6,14
606,11	4,10
606,16	40,96
606,21	-67,58
606,26	-65,53
606,31	71,68
606,36	75,77
606,41	45,06
606,46	61,44
606,51	-57,34
606,56	172,03
606,61	-122,88
606,66	-63,49
606,71	-2,05
606,76	36,86
606,81	10,24
606,87	-32,77
606,92	30,72
606,97	43,01
607,02	120,83
607,07	22,53
607,12	28,67
607,17	126,97
607,22	61,44
607,27	-2,05
607,32	122,88
607,37	-79,87
607,42	73,73
607,47	-43,01
607,52	-45,06
607,57	6,14
607,62	61,44
607,67	71,68
607,72	57,34
607,77	81,92
607,83	-2,05
607,88	6,14
607,93	-10,24
607,98	-90,11
608,03	161,79
608,08	22,53
608,13	43,01
608,18	88,06
608,23	49,15
608,28	-18,43
608,33	-28,67
608,38	-38,91
608,43	-51,20
608,48	-73,73
608,53	-10,24
608,58	-53,25
608,63	-71,68
608,68	-88,06
608,73	45,06
608,78	120,83
608,83	108,54
608,88	67,58
608,93	-18,43
608,98	98,30
609,03	-2,05
609,08	-22,53
609,13	-16,38
609,18	75,77
609,23	20,48
609,28	6,14
609,33	38,91
609,38	-55,30
609,43	-26,62
609,48	-40,96
609,53	-57,34
609,58	63,49
609,63	-12,29
609,69	-36,86
609,74	28,67
609,79	47,10
609,84	-71,68
609,89	118,78
609,94	40,96
609,99	40,96
610,04	-43,01
610,09	-12,29
610,14	-24,58
610,19	67,58
610,24	-43,01
610,29	-38,91
610,34	38,91
610,39	-8,19
610,44	-43,01
610,49	-12,29
610,54	102,40
610,59	12,29
610,64	96,25
610,69	92,16
610,74	-73,73
610,79	-38,91
610,84	8,19
610,89	81,92
610,94	38,91
610,99	75,77
611,04	-32,77
611,09	51,20
611,14	55,30
611,18	104,45
611,23	6,14
611,28	0,00
611,33	-2,05
611,38	61,44
611,43	67,58
611,48	-8,19
611,53	86,01
611,58	-57,34
611,63	69,63
611,68	28,67
611,73	4,10
611,78	202,75
611,83	-120,83
611,88	0,00
611,93	-53,25
611,98	4,10
612,03	-129,02
612,08	137,21
612,13	40,96
612,18	79,87
612,23	-6,14
612,28	38,91
612,33	-43,01
612,38	49,15
612,43	-6,14
612,48	79,87
612,53	59,39
612,58	90,11
612,63	8,19
612,68	-63,49
612,73	104,45
612,78	-57,34
612,83	6,14
612,88	67,58
612,93	-18,43
612,97	-4,10
613,02	-47,10
613,07	57,34
613,12	59,39
613,17	161,79
613,22	18,43
613,27	18,43
613,32	88,06
613,37	-20,48
613,42	-110,59
613,47	30,72
613,52	-20,48
613,57	55,30
613,62	65,53
613,67	-71,68
613,72	-24,58
613,77	-2,05
613,82	34,82
613,87	77,82
613,92	-47,10
613,96	143,36
614,01	20,48
614,06	-45,06
614,11	20,48
614,16	75,77
614,21	-26,62
614,26	14,34
614,31	57,34
614,36	49,15
614,41	0,00
614,46	-57,34
614,51	-18,43
614,56	45,06
614,61	47,10
614,66	57,34
614,70	-28,67
614,75	8,19
614,80	55,30
614,85	45,06
614,90	108,54
614,95	116,73
615,00	61,44
615,05	24,58
615,10	116,73
615,15	43,01
615,20	22,53
615,25	-18,43
615,30	-20,48
615,34	-4,10
615,39	16,38
615,44	112,64
615,49	-2,05
615,54	77,82
615,59	-75,77
615,64	-4,10
615,69	8,19
615,74	79,87
615,79	-65,53
615,84	-28,67
615,89	-65,54
615,93	-10,24
615,98	65,53
616,03	88,06
616,08	-88,06
616,13	0,00
616,18	40,96
616,23	-75,77
616,28	67,58
616,33	4,10
616,38	-10,24
616,42	32,77
616,47	77,82
616,52	26,62
616,57	14,34
616,62	65,54
616,67	108,54
616,72	-34,82
616,77	-79,87
616,82	2,05
616,87	32,77
616,91	4,10
616,96	-20,48
617,01	92,16
617,06	22,53
617,11	22,53
617,16	-65,53
617,21	-32,77
617,26	36,86
617,31	28,67
617,35	-143,36
617,40	28,67
617,45	16,38
617,50	110,59
617,55	-32,77
617,60	36,86
617,65	81,92
617,70	-16,38
617,74	-32,77
617,79	40,96
617,84	-10,24
617,89	169,98
617,94	-12,29
617,99	36,86
618,04	114,69
618,09	65,54
618,13	-14,34
618,18	-59,39
618,23	106,49
618,28	86,01
618,33	18,43
618,38	24,58
618,43	-49,15
618,48	-71,68
618,52	-75,77
618,57	-16,38
618,62	-20,48
618,67	20,48
618,72	-16,38
618,77	45,06
618,82	61,44
618,86	0,00
618,91	-43,01
618,96	57,34
619,01	24,58
619,06	51,20
619,11	40,96
619,16	-147,45
619,20	-38,91
619,25	-6,14
619,30	-28,67
619,35	69,63
619,40	67,58
619,45	-36,86
619,49	-2,05
619,54	73,73
619,59	-45,06
619,64	53,25
619,69	-61,44
619,74	40,96
619,79	12,29
619,83	61,44
619,88	-61,44
619,93	-38,91
619,98	20,48
620,03	-86,01
620,08	-38,91
620,12	-40,96
620,17	-57,34
620,22	104,45
620,27	-28,67
620,32	-73,73
620,37	-14,34
620,41	49,15
620,46	22,53
620,51	43,01
620,56	69,63
620,61	16,38
620,66	8,19
620,70	36,86
620,75	28,67
620,80	30,72
620,85	-28,67
620,90	63,49
620,95	-2,05
620,99	4,10
621,04	28,67
621,09	30,72
621,14	-32,77
621,19	-2,05
621,23	71,68
621,28	51,20
621,33	-30,72
621,38	71,68
621,43	-24,58
621,48	-24,58
621,52	22,53
621,57	114,69
621,62	-86,01
621,67	59,39
621,72	-16,38
621,76	-12,29
621,81	88,06
621,86	-24,58
621,91	86,01
621,96	32,77
622,00	49,15
622,05	12,29
622,10	-90,11
622,15	53,25
622,20	53,25
622,24	20,48
622,29	69,63
622,34	28,67
622,39	47,10
622,44	59,39
622,48	81,92
622,53	69,63
622,58	16,38
622,63	104,45
622,68	71,68
622,72	-63,49
622,77	196,61
622,82	32,77
622,87	-24,58
622,92	-59,39
622,96	114,69
623,01	-14,34
623,06	-67,58
623,11	-18,43
623,15	49,15
623,20	71,68
623,25	126,97
623,30	45,06
623,35	-98,30
623,39	83,97
623,44	-43,01
623,49	-79,87
623,54	-12,29
623,58	110,59
623,63	-43,01
623,68	-59,39
623,73	71,68
623,78	-118,78
623,82	104,45
623,87	6,14
623,92	-26,62
623,97	63,49
624,01	-47,10
624,06	65,54
624,11	34,82
624,16	45,06
624,21	-55,30
624,25	57,34
624,30	-86,01
624,35	106,49
624,40	32,77
624,44	65,54
624,49	90,11
624,54	-16,38
624,59	110,59
624,63	-20,48
624,68	49,15
624,73	22,53
624,78	43,01
624,82	47,10
624,87	86,01
624,92	34,82
624,97	-36,86
625,01	88,06
625,06	43,01
625,11	34,82
625,16	59,39
625,20	65,53
625,25	-49,15
625,30	16,38
625,35	98,30
625,39	18,43
625,44	8,19
625,49	-20,48
625,54	69,63
625,58	-155,65
625,63	-45,06
625,68	-18,43
625,73	-36,86
625,77	112,64
625,82	126,97
625,87	-112,64
625,92	110,59
625,96	-36,86
626,01	-8,19
626,06	55,30
626,10	18,43
626,15	47,10
626,20	47,10
626,25	8,19
626,29	81,92
626,34	110,59
626,39	57,34
626,44	-30,72
626,48	-34,82
626,53	-36,86
626,58	-45,06
626,62	40,96
626,67	-16,38
626,72	-22,53
626,77	51,20
626,81	73,73
626,86	22,53
626,91	-20,48
626,96	-24,58
627,00	40,96
627,05	69,63
627,10	-4,10
627,14	-34,82
627,19	4,10
627,24	-53,25
627,29	-24,58
627,33	18,43
627,38	-16,38
627,43	81,92
627,47	40,96
627,52	-59,39
627,57	40,96
627,62	-86,01
627,66	0,00
627,71	24,58
627,76	106,49
627,80	-32,77
627,85	-122,88
627,90	-12,29
627,94	26,62
627,99	-12,29
628,04	-71,68
628,09	83,97
628,13	12,29
628,18	-12,29
628,23	172,03
628,27	-83,97
628,32	79,87
628,37	77,82
628,41	-2,05
628,46	47,10
628,51	-24,58
628,55	63,49
628,60	28,67
628,65	32,77
628,70	-32,77
628,74	8,19
628,79	155,65
628,84	77,82
628,88	-22,53
628,93	34,82
628,98	-36,86
629,02	-12,29
629,07	67,58
629,12	-133,12
629,16	61,44
629,21	28,67
629,26	83,97
629,30	32,77
629,35	69,63
629,40	-26,62
629,44	6,14
629,49	20,48
629,54	-24,58
629,58	-16,38
629,63	47,10
629,68	30,72
629,72	86,01
629,77	26,62
629,82	32,77
629,86	55,30
629,91	47,10
629,96	114,69
630,00	-92,16
630,05	8,19
630,10	83,97
630,14	-40,96
630,19	-2,05
630,24	94,21
630,28	4,10
630,33	73,73
630,38	59,39
630,42	67,58
630,47	-12,29
630,52	6,14
630,56	-4,10
630,61	-20,48
630,66	124,93
630,70	43,01
630,75	165,89
630,80	-24,58
630,84	18,43
630,89	-16,38
630,94	86,01
630,98	38,91
631,03	14,34
631,07	22,53
631,12	4,10
631,17	55,30
631,21	-36,86
631,26	-53,25
631,31	0,00
631,35	-16,38
631,40	61,44
631,45	-16,38
631,49	102,40
631,54	-30,72
631,59	-36,86
631,63	-18,43
631,68	79,87
631,72	65,54
631,77	0,00
631,82	47,10
631,86	24,58
631,91	55,30
631,96	59,39
632,00	83,97
632,05	83,97
632,09	24,58
632,14	18,43
632,19	-49,15
632,23	-61,44
632,28	63,49
632,33	145,41
632,37	90,11
632,42	45,06
632,46	-49,15
632,51	-14,34
632,56	0,00
632,60	-10,24
632,65	-65,54
632,70	178,17
632,74	-47,10
632,79	67,58
632,83	40,96
632,88	94,21
632,93	-83,97
632,97	88,06
633,02	28,67
633,06	22,53
633,11	51,20
633,16	43,01
633,20	51,20
633,25	-69,63
633,29	-88,06
633,34	-20,48
633,39	10,24
633,43	26,62
633,48	22,53
633,52	-12,29
633,57	-139,26
633,62	30,72
633,66	-24,58
633,71	0,00
633,75	-20,48
633,80	-49,15
633,85	-61,44
633,89	-51,20
633,94	-4,10
633,98	32,77
634,03	-14,34
634,08	16,38
634,12	-40,96
634,17	-2,05
634,21	2,05
634,26	45,06
634,31	-4,10
634,35	40,96
634,40	-59,39
634,44	36,86
634,49	61,44
634,54	26,62
634,58	-2,05
634,63	-20,48
634,67	38,91
634,72	24,58
634,76	18,43
634,81	-36,86
634,86	-43,01
634,90	-47,10
634,95	116,73
634,99	6,14
635,04	-2,05
635,08	47,10
635,13	43,01
635,18	-55,30
635,22	-49,15
635,27	-18,43
635,31	-71,68
635,36	45,06
635,40	-36,86
635,45	24,58
635,50	-49,15
635,54	63,49
635,59	-69,63
635,63	75,77
635,68	34,82
635,72	102,40
635,77	49,15
635,81	-120,83
635,86	49,15
635,91	-65,54
635,95	69,63
636,00	-55,30
636,04	-49,15
636,09	-92,16
636,13	47,10
636,18	-18,43
636,22	-83,97
636,27	-36,86
636,32	-26,62
636,36	141,31
636,41	10,24
636,45	96,25
636,50	53,25
636,54	-20,48
636,59	0,00
636,63	202,75
636,68	-18,43
636,73	14,34
636,77	-77,82
636,82	67,58
636,86	-12,29
636,91	20,48
636,95	-8,19
637,00	77,82
637,04	114,69
637,09	110,59
637,13	8,19
637,18	75,77
637,22	-20,48
637,27	-34,82
637,31	45,06
637,36	131,07
637,41	20,48
637,45	12,29
637,50	-6,14
637,54	-36,86
637,59	57,34
637,63	65,54
637,68	-75,77
637,72	-126,97
637,77	-10,24
637,81	139,26
637,86	45,06
637,90	102,40
637,95	-10,24
637,99	55,30
638,04	-30,72
638,08	116,73
638,13	126,97
638,17	-51,20
638,22	36,86
638,26	34,82
638,31	-73,73
638,35	0,00
638,40	-40,96
638,45	59,39
638,49	-129,02
638,54	-6,14
638,58	57,34
638,63	45,06
638,67	-10,24
638,72	83,97
638,76	-32,77
638,81	26,62
638,85	94,21
638,90	26,62
638,94	26,62
638,99	83,97
639,03	-51,20
639,08	36,86
639,12	8,19
639,17	-34,82
639,21	51,20
639,26	90,11
639,30	-8,19
639,35	116,73
639,39	24,58
639,44	59,39
639,48	94,21
639,53	45,06
639,57	-30,72
639,62	-67,58
639,66	-153,60
639,70	-36,86
639,75	-24,58
639,79	2,05
639,84	49,15
639,88	-20,48
639,93	40,96
639,97	-16,38
640,02	6,14
640,06	22,53
640,11	0,00
640,15	141,31
640,20	-28,67
640,24	83,97
640,29	-51,20
640,33	51,20
640,38	-4,10
640,42	-114,69
640,47	88,06
640,51	-30,72
640,56	169,98
640,60	32,77
640,65	-55,30
640,69	75,77
640,73	-24,58
640,78	61,44
640,82	-102,40
640,87	133,12
640,91	83,97
640,96	4,10
641,00	12,29
641,05	47,10
641,09	-106,49
641,14	16,38
641,18	12,29
641,23	-40,96
641,27	36,86
641,32	6,14
641,36	114,69
641,40	-88,06
641,45	-16,38
641,49	-59,39
641,54	94,21
641,58	-73,73
641,63	-10,24
641,67	-141,31
641,72	63,49
641,76	26,62
641,80	-71,68
641,85	106,49
641,89	34,82
641,94	-32,77
641,98	-6,14
642,03	51,20
642,07	59,39
642,12	8,19
642,16	-94,21
642,20	88,06
642,25	-24,58
642,29	16,38
642,34	28,67
642,38	14,34
642,43	8,19
642,47	43,01
642,52	49,15
642,56	-59,39
642,60	131,07
642,65	2,05
642,69	71,68
642,74	2,05
642,78	-40,96
642,83	221,18
642,87	6,14
642,91	-40,96
642,96	-22,53
643,00	106,49
643,05	40,96
643,09	165,89
643,14	110,59
643,18	71,68
643,22	-120,83
643,27	71,68
643,31	38,91
643,36	26,62
643,40	-16,38
643,45	90,11
643,49	14,34
643,53	10,24
643,58	-24,58
643,62	-24,58
643,67	-2,05
643,71	38,91
643,75	12,29
643,80	8,19
643,84	-2,05
643,89	90,11
643,93	-38,91
643,97	8,19
644,02	112,64
644,06	-63,49
644,11	104,45
644,15	118,78
644,19	-79,87
644,24	114,69
644,28	-10,24
644,33	81,92
644,37	-69,63
644,42	96,25
644,46	92,16
644,50	81,92
644,55	-28,67
644,59	-8,19
644,63	59,39
644,68	-75,77
644,72	49,15
644,77	-6,14
644,81	22,53
644,85	-32,77
644,90	96,25
644,94	71,68
644,99	-51,20
645,03	186,37
645,07	51,20
645,12	0,00
645,16	47,10
645,21	14,34
645,25	4,10
645,29	51,20
645,34	-36,86
645,38	10,24
645,42	24,58
645,47	129,02
645,51	-24,58
645,56	43,01
645,60	-45,06
645,64	-65,53
645,69	172,03
645,73	92,16
645,77	2,05
645,82	-12,29
645,86	129,02
645,91	-20,48
645,95	2,05
645,99	51,20
646,04	98,30
646,08	-18,43
646,12	69,63
646,17	45,06
646,21	26,62
646,26	102,40
646,30	-20,48
646,34	67,58
646,39	-18,43
646,43	28,67
646,47	28,67
646,52	118,78
646,56	-18,43
646,60	81,92
646,65	-75,77
646,69	69,63
646,73	-129,02
646,78	-10,24
646,82	26,62
646,87	26,62
646,91	-22,53
646,95	6,14
647,00	-30,72
647,04	108,54
647,08	-10,24
647,13	-129,02
647,17	32,77
647,21	34,82
647,26	69,63
647,30	77,82
647,34	-67,58
647,39	-22,53
647,43	18,43
647,47	106,49
647,52	81,92
647,56	-43,01
647,60	96,25
647,65	-53,25
647,69	-108,54
647,73	135,17
647,78	59,39
647,82	51,20
647,86	16,38
647,91	112,64
647,95	-92,16
647,99	4,10
648,04	-18,43
648,08	77,82
648,12	24,58
648,17	71,68
648,21	57,34
648,25	45,06
648,30	81,92
648,34	75,77
648,38	0,00
648,43	-20,48
648,47	0,00
648,51	2,05
648,56	-104,45
648,60	-63,49
648,64	-26,62
648,69	-8,19
648,73	6,14
648,77	55,30
648,82	-24,58
648,86	-10,24
648,90	2,05
648,95	38,91
648,99	40,96
649,03	122,88
649,07	20,48
649,12	102,40
649,16	-24,58
649,20	-34,82
649,25	-22,53
649,29	-16,38
649,33	63,49
649,38	4,10
649,42	0,00
649,46	32,77
649,51	106,49
649,55	28,67
649,59	36,86
649,63	22,53
649,68	-55,30
649,72	-16,38
649,76	-43,01
649,81	-14,34
649,85	178,17
649,89	45,06
649,93	18,43
649,98	26,62
650,02	-14,34
650,06	-75,77
650,11	28,67
650,15	14,34
650,19	83,97
650,24	14,34
650,28	-75,77
650,32	28,67
650,36	-102,40
650,41	-4,10
650,45	20,48
650,49	45,06
650,54	-22,53
650,58	16,38
650,62	-45,06
650,66	-16,38
650,71	-20,48
650,75	-104,45
650,79	40,96
650,83	-26,62
650,88	96,25
650,92	32,77
650,96	24,58
651,01	149,50
651,05	-67,58
651,09	47,10
651,13	16,38
651,18	102,40
651,22	108,54
651,26	159,74
651,30	10,24
651,35	90,11
651,39	-47,10
651,43	139,26
651,48	-8,19
651,52	92,16
651,56	88,06
651,60	-79,87
651,65	159,74
651,69	-2,05
651,73	-6,14
651,77	116,73
651,82	-36,86
651,86	0,00
651,90	-55,30
651,94	36,86
651,99	6,14
652,03	12,29
652,07	81,92
652,11	86,01
652,16	-2,05
652,20	-86,01
652,24	-69,63
652,28	94,21
652,33	-81,92
652,37	108,54
652,41	137,21
652,45	12,29
652,50	55,30
652,54	-104,45
652,58	124,93
652,62	155,65
652,67	16,38
652,71	-96,25
652,75	49,15
652,79	83,97
652,84	-22,53
652,88	22,53
652,92	-71,68
652,96	6,14
653,00	16,38
653,05	90,11
653,09	-67,58
653,13	139,26
653,17	86,01
653,22	83,97
653,26	-75,77
653,30	155,65
653,34	0,00
653,39	-6,14
653,43	131,07
653,47	65,54
653,51	10,24
653,55	-10,24
653,60	147,45
653,64	-63,49
653,68	106,49
653,72	-26,62
653,77	-118,78
653,81	71,68
653,85	38,91
653,89	-8,19
653,93	110,59
653,98	30,72
654,02	53,25
654,06	8,19
654,10	-47,10
654,14	-18,43
654,19	73,73
654,23	104,45
654,27	83,97
654,31	-51,20
654,35	45,06
654,40	-6,14
654,44	61,44
654,48	30,72
654,52	38,91
654,57	28,67
654,61	-49,15
654,65	10,24
654,69	-14,34
654,73	2,05
654,78	-36,86
654,82	6,14
654,86	36,86
654,90	81,92
654,94	114,69
654,98	110,59
655,03	38,91
655,07	-12,29
655,11	-69,63
655,15	-77,82
655,19	-14,34
655,24	67,58
655,28	36,86
655,32	81,92
655,36	135,17
655,40	16,38
655,45	51,20
655,49	-47,10
655,53	-106,49
655,57	-40,96
655,61	24,58
655,65	-65,54
655,70	-38,91
655,74	20,48
655,78	204,80
655,82	30,72
655,86	-40,96
655,91	141,31
655,95	-61,44
655,99	-10,24
656,03	-49,15
656,07	-28,67
656,11	57,34
656,16	112,64
656,20	51,20
656,24	100,35
656,28	-10,24
656,32	24,58
656,36	10,24
656,41	47,10
656,45	-20,48
656,49	-30,72
656,53	-61,44
656,57	126,97
656,61	-71,68
656,66	30,72
656,70	-59,39
656,74	94,21
656,78	92,16
656,82	-26,62
656,86	-129,02
656,91	90,11
656,95	159,74
656,99	45,06
657,03	83,97
657,07	4,10
657,11	-18,43
657,15	-36,86
657,20	43,01
657,24	0,00
657,28	-57,34
657,32	-61,44
657,36	73,73
657,40	38,91
657,44	55,30
657,49	-6,14
657,53	-73,73
657,57	-51,20
657,61	-49,15
657,65	-16,38
657,69	-92,16
657,73	92,16
657,78	118,78
657,82	-98,30
657,86	4,10
657,90	26,62
657,94	-38,91
657,98	-47,10
658,02	61,44
658,07	81,92
658,11	-53,25
658,15	-40,96
658,19	-16,38
658,23	-96,25
658,27	57,34
658,31	12,29
658,35	-34,82
658,40	26,62
658,44	14,34
658,48	-53,25
658,52	-4,10
658,56	51,20
658,60	-24,58
658,64	30,72
658,68	102,40
658,73	75,77
658,77	-57,34
658,81	69,63
658,85	34,82
658,89	-47,10
658,93	0,00
658,97	81,92
659,01	69,63
659,06	98,30
659,10	-12,29
659,14	20,48
659,18	-16,38
659,22	110,59
659,26	-30,72
659,30	28,67
659,34	-10,24
659,38	-67,58
659,42	-22,53
659,47	-30,72
659,51	-16,38
659,55	-79,87
659,59	55,30
659,63	159,74
659,67	-6,14
659,71	26,62
659,75	-32,77
659,79	81,92
659,83	-86,01
659,88	-120,83
659,92	16,38
659,96	-49,15
660,00	147,45
660,04	116,73
660,08	49,15
660,12	79,87
660,16	-4,10
660,20	-12,29
660,24	-135,17
660,28	22,53
660,33	43,01
660,37	16,38
660,41	-22,53
660,45	-75,77
660,49	77,82
660,53	151,55
660,57	53,25
660,61	45,06
660,65	4,10
660,69	112,64
660,73	65,53
660,77	43,01
660,82	51,20
660,86	65,54
660,90	88,06
660,94	24,58
660,98	12,29
661,02	100,35
661,06	-165,89
661,10	135,17
661,14	108,54
661,18	69,63
661,22	55,30
661,26	51,20
661,30	47,10
661,34	12,29
661,39	55,30
661,43	32,77
661,47	-4,10
661,51	20,48
661,55	196,61
661,59	-18,43
661,63	100,35
661,67	-30,72
661,71	-49,15
661,75	38,91
661,79	-77,82
661,83	77,82
661,87	124,93
661,91	-20,48
661,95	-20,48
661,99	-47,10
662,03	43,01
662,08	-38,91
662,12	8,19
662,16	-45,06
662,20	75,77
662,24	96,25
662,28	55,30
662,32	118,78
662,36	61,44
662,40	8,19
662,44	47,10
662,48	18,43
662,52	-14,34
662,56	45,06
662,60	79,87
662,64	-20,48
662,68	36,86
662,72	65,53
662,76	24,58
662,80	65,53
662,84	96,25
662,88	-40,96
662,92	2,05
662,96	-45,06
663,00	92,16
663,04	28,67
663,09	-32,77
663,13	-12,29
663,17	63,49
663,21	-53,25
663,25	49,15
663,29	45,06
663,33	-196,61
663,37	200,70
663,41	96,25
663,45	73,73
663,49	53,25
663,53	102,40
663,57	165,89
663,61	6,14
663,65	237,56
663,69	24,58
663,73	-114,69
663,77	-45,06
663,81	102,40
663,85	-86,01
663,89	36,86
663,93	69,63
663,97	32,77
664,01	73,73
664,05	40,96
664,09	16,38
664,13	-96,25
664,17	34,82
664,21	14,34
664,25	172,03
664,29	83,97
664,33	45,06
664,37	61,44
664,41	102,40
664,45	-18,43
664,49	90,11
664,53	10,24
664,57	-36,86
664,61	90,11
664,65	34,82
664,69	-108,54
664,73	57,34
664,77	51,20
664,81	-40,96
664,85	-18,43
664,89	8,19
664,93	137,21
664,97	24,58
665,01	-61,44
665,05	12,29
665,09	-12,29
665,13	2,05
665,17	24,58
665,21	96,25
665,25	172,03
665,29	53,25
665,33	43,01
665,37	122,88
665,41	-43,01
665,45	-24,58
665,49	53,25
665,53	86,01
665,57	28,67
665,61	26,62
665,65	6,14
665,69	-102,40
665,73	-20,48
665,77	122,88
665,81	-47,10
665,85	-45,06
665,89	43,01
665,92	26,62
665,96	69,63
666,00	-24,58
666,04	34,82
666,08	53,25
666,12	12,29
666,16	-22,53
666,20	149,50
666,24	79,87
666,28	96,25
666,32	-6,14
666,36	196,60
666,40	-8,19
666,44	65,53
666,48	34,82
666,52	2,05
666,56	-32,77
666,60	141,31
666,64	28,67
666,68	30,72
666,72	-124,93
666,76	-10,24
666,80	-28,67
666,84	-10,24
666,88	-100,35
666,91	-6,14
666,95	122,88
666,99	83,97
667,03	-2,05
667,07	47,10
667,11	129,02
667,15	100,35
667,19	69,63
667,23	8,19
667,27	-36,86
667,31	28,67
667,35	90,11
667,39	100,35
667,43	45,06
667,47	-67,58
667,51	116,73
667,55	194,56
667,58	75,77
667,62	135,17
667,66	249,85
667,70	727,03
667,74	1284,08
667,78	2258,91
667,82	3323,85
667,86	4063,17
667,90	4632,51
667,94	5197,74
667,98	5826,47
668,02	7421,84
668,06	7942,02
668,10	6070,18
668,13	4288,45
668,17	3993,54
668,21	4335,55
668,25	4997,04
668,29	4603,83
668,33	4181,95
668,37	3610,57
668,41	3696,58
668,45	3745,73
668,49	4009,92
668,53	4198,34
668,57	3962,82
668,60	4136,90
668,64	3852,23
668,68	3770,31
668,72	3243,98
668,76	3147,73
668,80	2754,52
668,84	2437,08
668,88	2170,85
668,92	1816,55
668,96	1515,50
669,00	1318,89
669,03	931,83
669,07	780,28
669,11	520,18
669,15	385,02
669,19	546,81
669,23	317,44
669,27	28,67
669,31	241,66
669,35	81,92
669,39	217,08
669,42	-40,96
669,46	145,41
669,50	12,29
669,54	88,06
669,58	-45,06
669,62	69,63
669,66	61,44
669,70	38,91
669,74	-4,10
669,78	-139,26
669,81	32,77
669,85	-47,10
669,89	24,58
669,93	47,10
669,97	112,64
670,01	10,24
670,05	77,82
670,09	49,15
670,12	-18,43
670,16	102,40
670,20	-88,06
670,24	18,43
670,28	45,06
670,32	-38,91
670,36	59,39
670,40	92,16
670,43	122,88
670,47	47,10
670,51	2,05
670,55	16,38
670,59	83,97
670,63	-28,67
670,67	-2,05
670,71	8,19
670,74	-57,34
670,78	-69,63
670,82	-88,06
670,86	28,67
670,90	-100,35
670,94	-8,19
670,98	-98,30
671,01	10,24
671,05	-63,49
671,09	-28,67
671,13	137,21
671,17	149,50
671,21	12,29
671,25	26,62
671,28	-18,43
671,32	118,78
671,36	-36,86
671,40	4,10
671,44	53,25
671,48	116,73
671,52	61,44
671,55	-10,24
671,59	22,53
671,63	96,25
671,67	-100,35
671,71	14,34
671,75	63,49
671,79	129,02
671,82	-12,29
671,86	53,25
671,90	157,69
671,94	-67,58
>>>>>End Processed Spectral Data<<<<<
