SpectraSuite Datei
++++++++++++++++++++++++++++++++++++
Datum: Wed Nov 28 10:29:52 CET 2018
Benutzer: Raman
Dark-Spektrum vorhanden: Ja
Referenz-Spektrum vorhanden: Nein
Zahl der probierten Teilspektren: 1
Spektrometer: USB4F00098
Integrationszeit (usec): 500000 (USB4F00098)
Spektren Durchschnitt berechnet: 1 (USB4F00098)
Boxcar Glättung: 0 (USB4F00098)
Dunkelstromkorrektur: Nein (USB4F00098)
Puls/Lampe aktiviert: Nein (USB4F00098)
Correct for Detector Non-linearity: Nein (USB4F00098)
Streulichtkorrektur: Nein (USB4F00098)
Anzahl Pixel in verarbeitetem Spektrum: 3648
>>>>>Begin Processed Spectral Data<<<<<
476,77	69,63
476,84	69,63
476,91	69,63
476,98	-4,10
477,04	-49,15
477,11	-16,38
477,18	-6,14
477,25	-51,20
477,32	-59,39
477,39	-106,49
477,45	-14,34
477,52	28,67
477,59	77,82
477,66	49,15
477,73	71,68
477,80	-83,97
477,86	-36,86
477,93	-2,05
478,00	-79,87
478,07	73,73
478,14	2,05
478,21	10,24
478,27	-57,34
478,34	-2,05
478,41	32,77
478,48	-38,91
478,55	-92,16
478,62	6,14
478,68	-14,34
478,75	69,63
478,82	-14,34
478,89	-43,01
478,96	61,44
479,02	-83,97
479,09	-8,19
479,16	6,14
479,23	45,06
479,30	-24,58
479,37	-114,69
479,43	59,39
479,50	-147,45
479,57	65,54
479,64	-10,24
479,71	-26,62
479,77	-57,34
479,84	16,38
479,91	6,14
479,98	-65,54
480,05	65,54
480,11	-10,24
480,18	4,10
480,25	-6,14
480,32	-129,02
480,39	-49,15
480,45	10,24
480,52	-49,15
480,59	-92,16
480,66	-16,38
480,73	73,73
480,79	26,62
480,86	47,10
480,93	-20,48
481,00	-47,10
481,07	-40,96
481,13	12,29
481,20	100,35
481,27	-40,96
481,34	-22,53
481,41	-16,38
481,47	-104,45
481,54	34,82
481,61	-6,14
481,68	-36,86
481,74	-36,86
481,81	47,10
481,88	-71,68
481,95	57,34
482,02	-88,06
482,08	94,21
482,15	-100,35
482,22	-59,39
482,29	-22,53
482,35	8,19
482,42	-40,96
482,49	133,12
482,56	-16,38
482,63	81,92
482,69	-129,02
482,76	-14,34
482,83	6,14
482,90	83,97
482,96	-92,16
483,03	-61,44
483,10	-51,20
483,17	30,72
483,24	43,01
483,30	-53,25
483,37	-45,06
483,44	-63,49
483,51	-63,49
483,57	77,82
483,64	-108,54
483,71	32,77
483,78	-81,92
483,84	79,87
483,91	43,01
483,98	88,06
484,05	51,20
484,11	57,34
484,18	-104,45
484,25	-36,86
484,32	-40,96
484,38	32,77
484,45	-67,58
484,52	-61,44
484,59	40,96
484,65	-112,64
484,72	-14,34
484,79	65,54
484,86	102,40
484,92	106,49
484,99	-75,77
485,06	-110,59
485,13	12,29
485,19	-10,24
485,26	4,10
485,33	38,91
485,40	-59,39
485,46	18,43
485,53	-24,58
485,60	34,82
485,67	-47,10
485,73	-161,79
485,80	26,62
485,87	-57,34
485,94	18,43
486,00	49,15
486,07	32,77
486,14	-47,10
486,20	38,91
486,27	94,21
486,34	-67,58
486,41	83,97
486,47	34,82
486,54	32,77
486,61	30,72
486,68	69,63
486,74	75,77
486,81	90,11
486,88	67,58
486,94	192,51
487,01	22,53
487,08	16,38
487,15	38,91
487,21	-14,34
487,28	110,59
487,35	16,38
487,41	-57,34
487,48	-32,77
487,55	61,44
487,62	-20,48
487,68	-79,87
487,75	38,91
487,82	16,38
487,88	-88,06
487,95	143,36
488,02	43,01
488,09	67,58
488,15	36,86
488,22	94,21
488,29	6,14
488,35	-45,06
488,42	-28,67
488,49	-2,05
488,56	63,49
488,62	-90,11
488,69	55,30
488,76	-63,49
488,82	0,00
488,89	22,53
488,96	43,01
489,02	28,67
489,09	18,43
489,16	73,73
489,22	30,72
489,29	55,30
489,36	49,15
489,43	-8,19
489,49	61,44
489,56	22,53
489,63	-28,67
489,69	-2,05
489,76	51,20
489,83	59,39
489,89	30,72
489,96	16,38
490,03	2,05
490,09	79,87
490,16	-114,69
490,23	6,14
490,29	-51,20
490,36	-83,97
490,43	83,97
490,50	-53,25
490,56	65,54
490,63	57,34
490,70	57,34
490,76	30,72
490,83	106,49
490,90	-10,24
490,96	71,68
491,03	-90,11
491,10	45,06
491,16	-104,45
491,23	22,53
491,30	-22,53
491,36	-16,38
491,43	16,38
491,50	69,63
491,56	75,77
491,63	-73,73
491,70	126,97
491,76	55,30
491,83	190,46
491,90	71,68
491,96	59,39
492,03	14,34
492,10	118,78
492,16	176,13
492,23	110,59
492,30	-30,72
492,36	96,25
492,43	38,91
492,50	38,91
492,56	53,25
492,63	75,77
492,70	12,29
492,76	53,25
492,83	43,01
492,89	53,25
492,96	-8,19
493,03	2,05
493,09	71,68
493,16	-63,49
493,23	-61,44
493,29	-51,20
493,36	-6,14
493,43	10,24
493,49	-18,43
493,56	26,62
493,63	30,72
493,69	-40,96
493,76	6,14
493,82	43,01
493,89	-38,91
493,96	-100,35
494,02	73,73
494,09	26,62
494,16	-6,14
494,22	57,34
494,29	4,10
494,36	-14,34
494,42	-6,14
494,49	-86,01
494,55	45,06
494,62	8,19
494,69	38,91
494,75	-4,10
494,82	49,15
494,89	-57,34
494,95	61,44
495,02	53,25
495,08	59,39
495,15	-26,62
495,22	-32,77
495,28	24,58
495,35	30,72
495,42	-18,43
495,48	-43,01
495,55	6,14
495,61	-26,62
495,68	53,25
495,75	28,67
495,81	-12,29
495,88	-51,20
495,94	47,10
496,01	-8,19
496,08	-16,38
496,14	-124,93
496,21	-14,34
496,28	-88,06
496,34	-131,07
496,41	26,62
496,47	0,00
496,54	16,38
496,61	131,07
496,67	51,20
496,74	63,49
496,80	-20,48
496,87	71,68
496,94	28,67
497,00	12,29
497,07	-43,01
497,13	38,91
497,20	24,58
497,27	40,96
497,33	-92,16
497,40	-49,15
497,46	-26,62
497,53	-40,96
497,60	-18,43
497,66	49,15
497,73	20,48
497,79	61,44
497,86	-36,86
497,93	-8,19
497,99	100,35
498,06	36,86
498,12	-71,68
498,19	45,06
498,25	-139,26
498,32	-24,58
498,39	22,53
498,45	-16,38
498,52	73,73
498,58	-49,15
498,65	32,77
498,72	10,24
498,78	-16,38
498,85	16,38
498,91	79,87
498,98	43,01
499,04	51,20
499,11	-4,10
499,18	102,40
499,24	55,30
499,31	-24,58
499,37	112,64
499,44	-88,06
499,50	0,00
499,57	-67,58
499,64	12,29
499,70	-24,58
499,77	-4,10
499,83	-114,69
499,90	126,97
499,96	-45,06
500,03	-8,19
500,09	-16,38
500,16	-118,78
500,23	126,97
500,29	-43,01
500,36	120,83
500,42	-38,91
500,49	-102,40
500,55	24,58
500,62	114,69
500,68	49,15
500,75	-40,96
500,82	20,48
500,88	6,14
500,95	-75,77
501,01	135,17
501,08	104,45
501,14	202,75
501,21	434,17
501,27	636,92
501,34	645,11
501,41	571,38
501,47	598,01
501,54	542,71
501,60	557,05
501,67	393,21
501,73	350,20
501,80	409,59
501,86	391,16
501,93	401,40
501,99	460,79
502,06	219,13
502,12	350,20
502,19	147,45
502,26	137,21
502,32	108,54
502,39	10,24
502,45	-57,34
502,52	2,05
502,58	8,19
502,65	-6,14
502,71	57,34
502,78	-14,34
502,84	24,58
502,91	24,58
502,97	-18,43
503,04	-14,34
503,10	-6,14
503,17	-73,73
503,23	12,29
503,30	-61,44
503,37	96,25
503,43	-18,43
503,50	59,39
503,56	-108,54
503,63	12,29
503,69	-57,34
503,76	65,54
503,82	61,44
503,89	-14,34
503,95	32,77
504,02	0,00
504,08	71,68
504,15	94,21
504,21	-43,01
504,28	-26,62
504,34	83,97
504,41	83,97
504,47	57,34
504,54	-53,25
504,60	-12,29
504,67	129,02
504,73	-4,10
504,80	2,05
504,86	0,00
504,93	-4,10
504,99	16,38
505,06	51,20
505,12	-36,86
505,19	40,96
505,25	-45,06
505,32	-94,21
505,38	67,58
505,45	4,10
505,51	-32,77
505,58	71,68
505,64	-57,34
505,71	-49,15
505,77	26,62
505,84	-90,11
505,90	38,91
505,97	8,19
506,03	-79,87
506,10	-38,91
506,16	43,01
506,23	-92,16
506,29	57,34
506,36	-24,58
506,42	-14,34
506,49	14,34
506,55	2,05
506,62	22,53
506,68	36,86
506,75	-47,10
506,81	-6,14
506,87	30,72
506,94	-16,38
507,00	12,29
507,07	0,00
507,13	32,77
507,20	-16,38
507,26	-2,05
507,33	6,14
507,39	71,68
507,46	-77,82
507,52	-32,77
507,59	16,38
507,65	-10,24
507,72	-43,01
507,78	90,11
507,85	-32,77
507,91	8,19
507,97	79,87
508,04	20,48
508,10	2,05
508,17	61,44
508,23	-61,44
508,30	49,15
508,36	32,77
508,43	6,14
508,49	-61,44
508,56	-43,01
508,62	59,39
508,69	24,58
508,75	63,49
508,81	-71,68
508,88	22,53
508,94	-32,77
509,01	47,10
509,07	2,05
509,14	-108,54
509,20	-8,19
509,27	112,64
509,33	-63,49
509,39	-53,25
509,46	110,59
509,52	14,34
509,59	-12,29
509,65	-30,72
509,72	-12,29
509,78	-86,01
509,85	43,01
509,91	-8,19
509,97	55,30
510,04	2,05
510,10	61,44
510,17	92,16
510,23	-12,29
510,30	-2,05
510,36	75,77
510,42	-43,01
510,49	12,29
510,55	30,72
510,62	8,19
510,68	57,34
510,75	63,49
510,81	178,17
510,88	36,86
510,94	22,53
511,00	-57,34
511,07	2,05
511,13	12,29
511,20	57,34
511,26	14,34
511,32	114,69
511,39	20,48
511,45	-26,62
511,52	-71,68
511,58	86,01
511,65	-26,62
511,71	-51,20
511,77	-18,43
511,84	-57,34
511,90	-10,24
511,97	55,30
512,03	2,05
512,09	49,15
512,16	-28,67
512,22	-4,10
512,29	-71,68
512,35	-26,62
512,42	-10,24
512,48	8,19
512,54	83,97
512,61	-6,14
512,67	-18,43
512,74	-65,53
512,80	124,93
512,86	-38,91
512,93	40,96
512,99	34,82
513,06	-83,97
513,12	-10,24
513,18	-45,06
513,25	-57,34
513,31	4,10
513,38	-110,59
513,44	67,58
513,50	-12,29
513,57	40,96
513,63	-65,54
513,69	79,87
513,76	-6,14
513,82	-51,20
513,89	55,30
513,95	-38,91
514,01	-24,58
514,08	-12,29
514,14	98,30
514,21	-8,19
514,27	-20,48
514,33	0,00
514,40	28,67
514,46	-8,19
514,53	-55,30
514,59	-20,48
514,65	-34,82
514,72	-2,05
514,78	-4,10
514,84	6,14
514,91	28,67
514,97	30,72
515,04	-18,43
515,10	20,48
515,16	-81,92
515,23	26,62
515,29	-10,24
515,35	-65,54
515,42	69,63
515,48	-47,10
515,54	75,77
515,61	-88,06
515,67	18,43
515,74	108,54
515,80	86,01
515,86	67,58
515,93	43,01
515,99	34,82
516,05	10,24
516,12	-167,93
516,18	-81,92
516,24	92,16
516,31	61,44
516,37	-118,78
516,44	-34,82
516,50	73,73
516,56	-79,87
516,63	69,63
516,69	14,34
516,75	14,34
516,82	114,69
516,88	-100,35
516,94	2,05
517,01	-28,67
517,07	30,72
517,13	16,38
517,20	106,49
517,26	108,54
517,32	22,53
517,39	16,38
517,45	-6,14
517,52	24,58
517,58	4,10
517,64	79,87
517,71	2,05
517,77	-92,16
517,83	6,14
517,90	22,53
517,96	-49,15
518,02	-90,11
518,09	0,00
518,15	-75,77
518,21	100,35
518,28	10,24
518,34	34,82
518,40	122,88
518,47	92,16
518,53	-24,58
518,59	-22,53
518,66	104,45
518,72	-10,24
518,78	-61,44
518,85	-10,24
518,91	69,63
518,97	-14,34
519,03	-131,07
519,10	26,62
519,16	-10,24
519,22	20,48
519,29	73,73
519,35	12,29
519,41	28,67
519,48	-8,19
519,54	90,11
519,60	-49,15
519,67	51,20
519,73	-12,29
519,79	-61,44
519,86	-155,65
519,92	-18,43
519,98	-81,92
520,05	28,67
520,11	-4,10
520,17	90,11
520,23	36,86
520,30	-10,24
520,36	45,06
520,42	57,34
520,49	-59,39
520,55	18,43
520,61	-63,49
520,68	-126,97
520,74	-129,02
520,80	30,72
520,87	104,45
520,93	16,38
520,99	71,68
521,05	-24,58
521,12	-51,20
521,18	38,91
521,24	20,48
521,31	34,82
521,37	10,24
521,43	-71,68
521,49	-14,34
521,56	18,43
521,62	53,25
521,68	133,12
521,75	104,45
521,81	-49,15
521,87	16,38
521,93	61,44
522,00	43,01
522,06	30,72
522,12	47,10
522,19	26,62
522,25	-40,96
522,31	55,30
522,37	-16,38
522,44	61,44
522,50	30,72
522,56	-14,34
522,63	-49,15
522,69	26,62
522,75	-10,24
522,81	-86,01
522,88	122,88
522,94	-34,82
523,00	57,34
523,06	-61,44
523,13	51,20
523,19	-45,06
523,25	4,10
523,32	22,53
523,38	-24,58
523,44	-53,25
523,50	-24,58
523,57	45,06
523,63	51,20
523,69	2,05
523,75	-10,24
523,82	12,29
523,88	-55,30
523,94	4,10
524,00	-112,64
524,07	61,44
524,13	-14,34
524,19	67,58
524,25	-34,82
524,32	16,38
524,38	14,34
524,44	30,72
524,50	75,77
524,57	18,43
524,63	147,45
524,69	24,58
524,75	12,29
524,82	32,77
524,88	43,01
524,94	-34,82
525,00	16,38
525,07	45,06
525,13	20,48
525,19	79,87
525,25	28,67
525,32	-34,82
525,38	-22,53
525,44	202,75
525,50	100,35
525,57	20,48
525,63	8,19
525,69	51,20
525,75	-18,43
525,82	-43,01
525,88	120,83
525,94	24,58
526,00	-47,10
526,07	-24,58
526,13	18,43
526,19	83,97
526,25	18,43
526,31	-90,11
526,38	10,24
526,44	-47,10
526,50	65,54
526,56	-96,25
526,63	-32,77
526,69	-34,82
526,75	-22,53
526,81	8,19
526,87	18,43
526,94	-8,19
527,00	100,35
527,06	75,77
527,12	-10,24
527,19	-73,73
527,25	-22,53
527,31	-100,35
527,37	-6,14
527,43	40,96
527,50	2,05
527,56	-96,25
527,62	47,10
527,68	2,05
527,75	16,38
527,81	-28,67
527,87	-43,01
527,93	49,15
527,99	-63,49
528,06	6,14
528,12	69,63
528,18	-26,62
528,24	20,48
528,30	69,63
528,37	-51,20
528,43	81,92
528,49	-45,06
528,55	-43,01
528,61	-28,67
528,68	20,48
528,74	-143,36
528,80	86,01
528,86	34,82
528,92	47,10
528,99	-14,34
529,05	67,58
529,11	-90,11
529,17	49,15
529,23	-24,58
529,29	49,15
529,36	-36,86
529,42	49,15
529,48	2,05
529,54	-38,91
529,60	-38,91
529,67	38,91
529,73	-38,91
529,79	-38,91
529,85	-73,73
529,91	-112,64
529,98	-81,92
530,04	-63,49
530,10	-38,91
530,16	24,58
530,22	-10,24
530,28	40,96
530,35	81,92
530,41	6,14
530,47	-20,48
530,53	10,24
530,59	-20,48
530,65	-28,67
530,72	40,96
530,78	-38,91
530,84	-53,25
530,90	57,34
530,96	-32,77
531,02	-24,58
531,09	-16,38
531,15	4,10
531,21	-16,38
531,27	-38,91
531,33	-10,24
531,39	-75,77
531,46	-102,40
531,52	38,91
531,58	18,43
531,64	2,05
531,70	0,00
531,76	38,91
531,83	10,24
531,89	28,67
531,95	-79,87
532,01	-55,30
532,07	86,01
532,13	-22,53
532,19	-51,20
532,26	53,25
532,32	-20,48
532,38	16,38
532,44	-38,91
532,50	-26,62
532,56	69,63
532,63	-8,19
532,69	-6,14
532,75	-61,44
532,81	-98,30
532,87	16,38
532,93	69,63
532,99	0,00
533,06	-43,01
533,12	67,58
533,18	-43,01
533,24	79,87
533,30	-81,92
533,36	-69,63
533,42	-81,92
533,48	65,54
533,55	-83,97
533,61	6,14
533,67	22,53
533,73	36,86
533,79	0,00
533,85	-90,11
533,91	61,44
533,98	-86,01
534,04	-61,44
534,10	-88,06
534,16	-30,72
534,22	-30,72
534,28	6,14
534,34	22,53
534,40	40,96
534,47	-26,62
534,53	2,05
534,59	55,30
534,65	-49,15
534,71	10,24
534,77	-20,48
534,83	-6,14
534,89	-14,34
534,95	6,14
535,02	20,48
535,08	-69,63
535,14	-38,91
535,20	30,72
535,26	6,14
535,32	-22,53
535,38	16,38
535,44	106,49
535,50	45,06
535,57	126,97
535,63	22,53
535,69	102,40
535,75	-2,05
535,81	-10,24
535,87	18,43
535,93	-73,73
535,99	-43,01
536,05	-45,06
536,11	8,19
536,18	-10,24
536,24	26,62
536,30	-90,11
536,36	36,86
536,42	20,48
536,48	-108,54
536,54	63,49
536,60	36,86
536,66	-61,44
536,72	-36,86
536,79	-26,62
536,85	12,29
536,91	-34,82
536,97	-67,58
537,03	-43,01
537,09	-16,38
537,15	-26,62
537,21	-4,10
537,27	6,14
537,33	-22,53
537,39	43,01
537,45	2,05
537,52	-10,24
537,58	-86,01
537,64	22,53
537,70	-14,34
537,76	38,91
537,82	43,01
537,88	-86,01
537,94	-55,30
538,00	-10,24
538,06	63,49
538,12	151,55
538,18	22,53
538,24	26,62
538,31	-59,39
538,37	24,58
538,43	32,77
538,49	-20,48
538,55	-90,11
538,61	77,82
538,67	-8,19
538,73	-38,91
538,79	-20,48
538,85	-34,82
538,91	24,58
538,97	-14,34
539,03	18,43
539,09	-26,62
539,15	-38,91
539,21	-20,48
539,28	141,31
539,34	-28,67
539,40	-34,82
539,46	20,48
539,52	-10,24
539,58	34,82
539,64	-83,97
539,70	40,96
539,76	2,05
539,82	26,62
539,88	51,20
539,94	-34,82
540,00	57,34
540,06	6,14
540,12	0,00
540,18	49,15
540,24	96,25
540,30	59,39
540,36	126,97
540,42	-141,31
540,49	-79,87
540,55	10,24
540,61	51,20
540,67	-22,53
540,73	-10,24
540,79	92,16
540,85	-4,10
540,91	77,82
540,97	-34,82
541,03	-18,43
541,09	-18,43
541,15	4,10
541,21	6,14
541,27	16,38
541,33	20,48
541,39	32,77
541,45	40,96
541,51	63,49
541,57	14,34
541,63	-32,77
541,69	24,58
541,75	-28,67
541,81	36,86
541,87	18,43
541,93	47,10
541,99	-67,58
542,05	36,86
542,11	14,34
542,17	-49,15
542,23	65,53
542,29	40,96
542,35	36,86
542,41	34,82
542,47	-65,54
542,53	-139,26
542,59	36,86
542,65	-14,34
542,71	75,77
542,77	61,44
542,83	92,16
542,89	43,01
542,95	51,20
543,01	22,53
543,07	-47,10
543,13	-69,63
543,19	40,96
543,25	-14,34
543,31	-90,11
543,37	-309,24
543,43	73,73
543,49	-24,58
543,55	20,48
543,61	28,67
543,67	12,29
543,73	116,73
543,79	-120,83
543,85	32,77
543,91	59,39
543,97	79,87
544,03	-14,34
544,09	8,19
544,15	53,25
544,21	-38,91
544,27	-81,92
544,33	26,62
544,39	45,06
544,45	-26,62
544,51	16,38
544,57	10,24
544,63	-14,34
544,69	6,14
544,75	81,92
544,81	-143,36
544,87	-12,29
544,93	-67,58
544,99	-43,01
545,05	-45,06
545,11	40,96
545,17	-69,63
545,23	18,43
545,29	-40,96
545,35	-18,43
545,41	-12,29
545,47	-16,38
545,53	8,19
545,59	129,02
545,65	16,38
545,71	2,05
545,77	40,96
545,83	-4,10
545,89	172,03
545,95	0,00
546,01	108,54
546,07	-22,53
546,13	-4,10
546,19	69,63
546,25	20,48
546,31	-36,86
546,37	-59,39
546,42	-135,17
546,48	-8,19
546,54	-73,73
546,60	-32,77
546,66	-112,64
546,72	55,30
546,78	47,10
546,84	43,01
546,90	-40,96
546,96	49,15
547,02	0,00
547,08	32,77
547,14	-22,53
547,20	22,53
547,26	-118,78
547,32	-32,77
547,38	-22,53
547,44	73,73
547,50	-55,30
547,56	2,05
547,62	96,25
547,67	6,14
547,73	-4,10
547,79	-2,05
547,85	77,82
547,91	-2,05
547,97	-14,34
548,03	-81,92
548,09	-112,64
548,15	34,82
548,21	-71,68
548,27	-14,34
548,33	-4,10
548,39	6,14
548,45	-12,29
548,51	32,77
548,56	-71,68
548,62	4,10
548,68	-36,86
548,74	180,22
548,80	4,10
548,86	24,58
548,92	57,34
548,98	32,77
549,04	8,19
549,10	-67,58
549,16	112,64
549,22	112,64
549,28	47,10
549,34	-59,39
549,39	38,91
549,45	-26,62
549,51	61,44
549,57	-79,87
549,63	34,82
549,69	4,10
549,75	22,53
549,81	-45,06
549,87	24,58
549,93	36,86
549,99	-14,34
550,04	-122,88
550,10	8,19
550,16	165,89
550,22	77,82
550,28	28,67
550,34	77,82
550,40	98,30
550,46	65,54
550,52	100,35
550,58	32,77
550,64	30,72
550,69	71,68
550,75	-10,24
550,81	32,77
550,87	-77,82
550,93	96,25
550,99	16,38
551,05	126,97
551,11	4,10
551,17	-16,38
551,23	16,38
551,28	53,25
551,34	-65,53
551,40	34,82
551,46	114,69
551,52	16,38
551,58	-22,53
551,64	92,16
551,70	77,82
551,76	4,10
551,81	155,65
551,87	79,87
551,93	2,05
551,99	69,63
552,05	26,62
552,11	22,53
552,17	-102,40
552,23	-124,93
552,28	-20,48
552,34	14,34
552,40	-34,82
552,46	38,91
552,52	49,15
552,58	51,20
552,64	30,72
552,70	26,62
552,75	-24,58
552,81	28,67
552,87	-55,30
552,93	2,05
552,99	22,53
553,05	-112,64
553,11	34,82
553,17	18,43
553,22	-32,77
553,28	20,48
553,34	-20,48
553,40	-100,35
553,46	10,24
553,52	2,05
553,58	10,24
553,63	34,82
553,69	24,58
553,75	47,10
553,81	-67,58
553,87	65,54
553,93	-26,62
553,99	43,01
554,04	12,29
554,10	86,01
554,16	-22,53
554,22	-30,72
554,28	51,20
554,34	-53,25
554,40	16,38
554,45	45,06
554,51	-14,34
554,57	59,39
554,63	59,39
554,69	-26,62
554,75	-24,58
554,80	47,10
554,86	10,24
554,92	51,20
554,98	59,39
555,04	47,10
555,10	40,96
555,16	45,06
555,21	-38,91
555,27	-36,86
555,33	-69,63
555,39	-8,19
555,45	51,20
555,51	-34,82
555,56	61,44
555,62	20,48
555,68	34,82
555,74	-26,62
555,80	-61,44
555,86	-22,53
555,91	-22,53
555,97	57,34
556,03	-40,96
556,09	12,29
556,15	94,21
556,20	32,77
556,26	77,82
556,32	-53,25
556,38	2,05
556,44	34,82
556,50	-51,20
556,55	61,44
556,61	28,67
556,67	16,38
556,73	0,00
556,79	53,25
556,84	-12,29
556,90	34,82
556,96	16,38
557,02	94,21
557,08	88,06
557,14	40,96
557,19	-106,49
557,25	-18,43
557,31	-36,86
557,37	-6,14
557,43	14,34
557,48	38,91
557,54	55,30
557,60	-30,72
557,66	172,03
557,72	-59,39
557,77	-4,10
557,83	-55,30
557,89	53,25
557,95	-2,05
558,01	57,34
558,06	10,24
558,12	135,17
558,18	28,67
558,24	92,16
558,30	-6,14
558,35	73,73
558,41	24,58
558,47	-22,53
558,53	-12,29
558,59	-55,30
558,64	6,14
558,70	0,00
558,76	-69,63
558,82	88,06
558,88	57,34
558,93	-65,53
558,99	-67,58
559,05	57,34
559,11	-20,48
559,16	-6,14
559,22	45,06
559,28	100,35
559,34	-96,25
559,40	-14,34
559,45	-94,21
559,51	-69,63
559,57	20,48
559,63	-55,30
559,68	53,25
559,74	77,82
559,80	47,10
559,86	-77,82
559,92	47,10
559,97	0,00
560,03	63,49
560,09	-2,05
560,15	100,35
560,20	24,58
560,26	-16,38
560,32	-32,77
560,38	-24,58
560,43	34,82
560,49	-67,58
560,55	-4,10
560,61	118,78
560,66	90,11
560,72	-43,01
560,78	-12,29
560,84	38,91
560,90	172,03
560,95	131,07
561,01	83,97
561,07	26,62
561,13	-6,14
561,18	-55,30
561,24	-102,40
561,30	-49,15
561,36	69,63
561,41	77,82
561,47	0,00
561,53	-59,39
561,59	-10,24
561,64	18,43
561,70	18,43
561,76	32,77
561,82	-104,45
561,87	51,20
561,93	10,24
561,99	65,54
562,05	28,67
562,10	32,77
562,16	71,68
562,22	4,10
562,27	22,53
562,33	-34,82
562,39	-36,86
562,45	118,78
562,50	28,67
562,56	49,15
562,62	47,10
562,68	65,53
562,73	16,38
562,79	36,86
562,85	88,06
562,91	-40,96
562,96	120,83
563,02	-18,43
563,08	51,20
563,13	38,91
563,19	-22,53
563,25	30,72
563,31	69,63
563,36	10,24
563,42	-4,10
563,48	-20,48
563,53	-8,19
563,59	-14,34
563,65	-61,44
563,71	169,98
563,76	131,07
563,82	20,48
563,88	-24,58
563,94	45,06
563,99	81,92
564,05	22,53
564,11	20,48
564,16	40,96
564,22	-36,86
564,28	75,77
564,33	-14,34
564,39	51,20
564,45	-47,10
564,51	-28,67
564,56	8,19
564,62	79,87
564,68	4,10
564,73	69,63
564,79	69,63
564,85	-26,62
564,91	14,34
564,96	-4,10
565,02	73,73
565,08	-36,86
565,13	-12,29
565,19	108,54
565,25	40,96
565,30	-63,49
565,36	26,62
565,42	-8,19
565,47	40,96
565,53	0,00
565,59	49,15
565,65	71,68
565,70	49,15
565,76	10,24
565,82	-133,12
565,87	0,00
565,93	-118,78
565,99	100,35
566,04	90,11
566,10	-77,82
566,16	-12,29
566,21	45,06
566,27	16,38
566,33	-53,25
566,38	161,79
566,44	-135,17
566,50	-8,19
566,55	34,82
566,61	-8,19
566,67	32,77
566,73	-38,91
566,78	20,48
566,84	120,83
566,90	100,35
566,95	96,25
567,01	-12,29
567,07	30,72
567,12	0,00
567,18	-24,58
567,24	16,38
567,29	-30,72
567,35	10,24
567,41	-8,19
567,46	47,10
567,52	-14,34
567,58	-18,43
567,63	51,20
567,69	-2,05
567,75	-55,30
567,80	8,19
567,86	-110,59
567,91	-4,10
567,97	63,49
568,03	26,62
568,08	77,82
568,14	32,77
568,20	67,58
568,25	96,25
568,31	57,34
568,37	45,06
568,42	-6,14
568,48	75,77
568,54	174,08
568,59	-10,24
568,65	75,77
568,71	-14,34
568,76	51,20
568,82	-81,92
568,88	-20,48
568,93	63,49
568,99	57,34
569,04	32,77
569,10	-71,68
569,16	12,29
569,21	-57,34
569,27	18,43
569,33	-8,19
569,38	-75,77
569,44	92,16
569,50	-38,91
569,55	24,58
569,61	-38,91
569,66	36,86
569,72	43,01
569,78	36,86
569,83	-69,63
569,89	0,00
569,95	116,73
570,00	100,35
570,06	61,44
570,11	8,19
570,17	75,77
570,23	-86,01
570,28	96,25
570,34	-26,62
570,40	-38,91
570,45	-24,58
570,51	40,96
570,56	10,24
570,62	-22,53
570,68	71,68
570,73	55,30
570,79	14,34
570,85	-83,97
570,90	100,35
570,96	-20,48
571,01	-106,49
571,07	-75,77
571,13	20,48
571,18	-34,82
571,24	51,20
571,29	98,30
571,35	102,40
571,41	10,24
571,46	96,25
571,52	24,58
571,57	-38,91
571,63	-14,34
571,69	8,19
571,74	-55,30
571,80	-2,05
571,85	57,34
571,91	-16,38
571,97	-24,58
572,02	-26,62
572,08	36,86
572,13	94,21
572,19	-40,96
572,25	-2,05
572,30	-34,82
572,36	59,39
572,41	2,05
572,47	63,49
572,53	92,16
572,58	-26,62
572,64	49,15
572,69	124,93
572,75	20,48
572,80	-8,19
572,86	-24,58
572,92	-14,34
572,97	69,63
573,03	38,91
573,08	-63,49
573,14	79,87
573,20	40,96
573,25	-16,38
573,31	-26,62
573,36	49,15
573,42	32,77
573,47	40,96
573,53	94,21
573,59	-26,62
573,64	0,00
573,70	92,16
573,75	-28,67
573,81	157,69
573,86	10,24
573,92	32,77
573,98	-43,01
574,03	20,48
574,09	-12,29
574,14	-26,62
574,20	-16,38
574,25	-57,34
574,31	12,29
574,37	2,05
574,42	2,05
574,48	92,16
574,53	30,72
574,59	22,53
574,64	14,34
574,70	-43,01
574,75	-14,34
574,81	69,63
574,87	69,63
574,92	24,58
574,98	14,34
575,03	88,06
575,09	49,15
575,14	16,38
575,20	90,11
575,25	79,87
575,31	159,74
575,37	81,92
575,42	139,26
575,48	30,72
575,53	10,24
575,59	47,10
575,64	-16,38
575,70	36,86
575,75	79,87
575,81	102,40
575,86	59,39
575,92	4,10
575,98	-8,19
576,03	-24,58
576,09	-4,10
576,14	34,82
576,20	24,58
576,25	88,06
576,31	-55,30
576,36	112,64
576,42	-40,96
576,47	6,14
576,53	34,82
576,58	-83,97
576,64	38,91
576,69	51,20
576,75	-47,10
576,81	8,19
576,86	0,00
576,92	163,84
576,97	14,34
577,03	-126,97
577,08	96,25
577,14	71,68
577,19	73,73
577,25	51,20
577,30	-69,63
577,36	38,91
577,41	122,88
577,47	-20,48
577,52	63,49
577,58	45,06
577,63	71,68
577,69	143,36
577,74	-18,43
577,80	6,14
577,85	126,97
577,91	-38,91
577,96	-22,53
578,02	71,68
578,07	-104,45
578,13	-6,14
578,18	96,25
578,24	43,01
578,29	49,15
578,35	-36,86
578,40	94,21
578,46	12,29
578,51	32,77
578,57	-12,29
578,62	57,34
578,68	100,35
578,73	18,43
578,79	12,29
578,84	16,38
578,90	-43,01
578,95	-65,53
579,01	53,25
579,06	14,34
579,12	-67,58
579,17	-65,53
579,23	86,01
579,28	75,77
579,34	12,29
579,39	32,77
579,45	81,92
579,50	30,72
579,56	8,19
579,61	90,11
579,67	-43,01
579,72	-32,77
579,78	-10,24
579,83	16,38
579,89	28,67
579,94	-61,44
580,00	26,62
580,05	28,67
580,11	40,96
580,16	0,00
580,22	45,06
580,27	0,00
580,32	100,35
580,38	24,58
580,43	55,30
580,49	-2,05
580,54	34,82
580,60	88,06
580,65	22,53
580,71	94,21
580,76	53,25
580,82	16,38
580,87	-49,15
580,93	53,25
580,98	151,55
581,04	-24,58
581,09	67,58
581,14	61,44
581,20	88,06
581,25	-2,05
581,31	114,69
581,36	-30,72
581,42	-8,19
581,47	-22,53
581,53	59,39
581,58	-16,38
581,64	-22,53
581,69	92,16
581,75	47,10
581,80	-75,77
581,85	399,35
581,91	12,29
581,96	59,39
582,02	-24,58
582,07	-38,91
582,13	-22,53
582,18	6,14
582,24	104,45
582,29	-12,29
582,34	-14,34
582,40	-14,34
582,45	22,53
582,51	-36,86
582,56	67,58
582,62	-110,59
582,67	14,34
582,73	120,83
582,78	-32,77
582,83	114,69
582,89	63,49
582,94	6,14
583,00	40,96
583,05	-10,24
583,11	65,53
583,16	-30,72
583,21	30,72
583,27	-38,91
583,32	-45,06
583,38	43,01
583,43	-49,15
583,49	26,62
583,54	-14,34
583,59	32,77
583,65	59,39
583,70	-40,96
583,76	-14,34
583,81	182,27
583,87	49,15
583,92	124,93
583,97	-22,53
584,03	88,06
584,08	-26,62
584,14	51,20
584,19	-124,93
584,24	83,97
584,30	61,44
584,35	4,10
584,41	6,14
584,46	63,49
584,52	-40,96
584,57	45,06
584,62	98,30
584,68	-22,53
584,73	0,00
584,79	2,05
584,84	-45,06
584,89	8,19
584,95	112,64
585,00	81,92
585,06	92,16
585,11	6,14
585,16	-92,16
585,22	-40,96
585,27	-8,19
585,33	4,10
585,38	28,67
585,43	53,25
585,49	-22,53
585,54	145,41
585,60	-8,19
585,65	61,44
585,70	-2,05
585,76	116,73
585,81	-45,06
585,87	71,68
585,92	38,91
585,97	86,01
586,03	-47,10
586,08	45,06
586,13	40,96
586,19	204,80
586,24	137,21
586,30	83,97
586,35	20,48
586,40	22,53
586,46	149,50
586,51	139,26
586,57	57,34
586,62	12,29
586,67	8,19
586,73	59,39
586,78	63,49
586,83	149,50
586,89	65,54
586,94	98,30
587,00	145,41
587,05	57,34
587,10	55,30
587,16	114,69
587,21	301,05
587,26	221,18
587,32	378,87
587,37	1652,71
587,42	4550,59
587,48	10588,00
587,53	16989,95
587,59	20491,98
587,64	28513,87
587,69	27995,73
587,75	21470,90
587,80	25933,43
587,85	32218,64
587,91	24833,67
587,96	15736,59
588,01	8316,80
588,07	5445,55
588,12	3780,55
588,17	2543,58
588,23	1777,64
588,28	1118,19
588,34	657,40
588,39	403,45
588,44	344,06
588,50	192,51
588,55	282,62
588,60	196,61
588,66	186,37
588,71	38,91
588,76	174,08
588,82	100,35
588,87	86,01
588,92	61,44
588,98	141,31
589,03	135,17
589,08	106,49
589,14	133,12
589,19	43,01
589,24	-18,43
589,30	22,53
589,35	4,10
589,40	61,44
589,46	59,39
589,51	40,96
589,56	-83,97
589,62	83,97
589,67	45,06
589,72	59,39
589,78	34,82
589,83	112,64
589,88	16,38
589,94	53,25
589,99	8,19
590,04	-28,67
590,10	81,92
590,15	-40,96
590,20	133,12
590,26	49,15
590,31	-2,05
590,36	108,54
590,42	38,91
590,47	30,72
590,52	-20,48
590,58	-22,53
590,63	2,05
590,68	110,59
590,74	-14,34
590,79	112,64
590,84	32,77
590,89	139,26
590,95	-2,05
591,00	-16,38
591,05	-26,62
591,11	-38,91
591,16	2,05
591,21	43,01
591,27	73,73
591,32	77,82
591,37	122,88
591,43	112,64
591,48	38,91
591,53	-2,05
591,58	-14,34
591,64	86,01
591,69	30,72
591,74	32,77
591,80	24,58
591,85	40,96
591,90	14,34
591,96	-4,10
592,01	-34,82
592,06	0,00
592,11	0,00
592,17	53,25
592,22	86,01
592,27	88,06
592,33	8,19
592,38	49,15
592,43	-6,14
592,48	-16,38
592,54	-67,58
592,59	22,53
592,64	-43,01
592,70	-16,38
592,75	81,92
592,80	110,59
592,85	-77,82
592,91	-6,14
592,96	96,25
593,01	63,49
593,07	-61,44
593,12	-63,49
593,17	100,35
593,22	-8,19
593,28	20,48
593,33	0,00
593,38	6,14
593,44	75,77
593,49	-55,30
593,54	28,67
593,59	-43,01
593,65	-34,82
593,70	81,92
593,75	102,40
593,80	16,38
593,86	-22,53
593,91	104,45
593,96	-8,19
594,01	92,16
594,07	-43,01
594,12	75,77
594,17	10,24
594,23	-28,67
594,28	-86,01
594,33	-30,72
594,38	16,38
594,44	24,58
594,49	10,24
594,54	12,29
594,59	57,34
594,65	12,29
594,70	137,21
594,75	-18,43
594,80	43,01
594,86	118,78
594,91	-28,67
594,96	14,34
595,01	73,73
595,07	20,48
595,12	14,34
595,17	-2,05
595,22	81,92
595,28	100,35
595,33	-40,96
595,38	-18,43
595,43	55,30
595,49	-12,29
595,54	49,15
595,59	172,03
595,64	-18,43
595,69	79,87
595,75	8,19
595,80	-32,77
595,85	-26,62
595,90	-45,06
595,96	57,34
596,01	-30,72
596,06	71,68
596,11	49,15
596,17	92,16
596,22	-26,62
596,27	-30,72
596,32	36,86
596,38	-16,38
596,43	30,72
596,48	28,67
596,53	75,77
596,58	104,45
596,64	96,25
596,69	147,45
596,74	65,53
596,79	98,30
596,85	-94,21
596,90	36,86
596,95	65,54
597,00	116,73
597,05	16,38
597,11	59,39
597,16	43,01
597,21	47,10
597,26	8,19
597,31	47,10
597,37	65,54
597,42	8,19
597,47	94,21
597,52	-38,91
597,57	6,14
597,63	34,82
597,68	-28,67
597,73	57,34
597,78	94,21
597,84	86,01
597,89	-30,72
597,94	-18,43
597,99	-12,29
598,04	-20,48
598,10	120,83
598,15	38,91
598,20	108,54
598,25	36,86
598,30	-8,19
598,36	-59,39
598,41	6,14
598,46	-14,34
598,51	49,15
598,56	-4,10
598,61	65,54
598,67	12,29
598,72	-20,48
598,77	-26,62
598,82	104,45
598,87	-88,06
598,93	112,64
598,98	-22,53
599,03	49,15
599,08	2,05
599,13	10,24
599,19	114,69
599,24	-61,44
599,29	0,00
599,34	-47,10
599,39	61,44
599,44	14,34
599,50	40,96
599,55	-49,15
599,60	-49,15
599,65	61,44
599,70	129,02
599,75	77,82
599,81	-6,14
599,86	169,98
599,91	63,49
599,96	69,63
600,01	67,58
600,07	102,40
600,12	-36,86
600,17	61,44
600,22	-55,30
600,27	-61,44
600,32	67,58
600,38	61,44
600,43	110,59
600,48	43,01
600,53	-94,21
600,58	-8,19
600,63	45,06
600,68	8,19
600,74	61,44
600,79	-30,72
600,84	-38,91
600,89	-2,05
600,94	38,91
600,99	-32,77
601,05	22,53
601,10	83,97
601,15	-8,19
601,20	10,24
601,25	57,34
601,30	16,38
601,35	-22,53
601,41	98,30
601,46	47,10
601,51	-24,58
601,56	133,12
601,61	8,19
601,66	122,88
601,71	110,59
601,77	38,91
601,82	38,91
601,87	-18,43
601,92	-8,19
601,97	10,24
602,02	2,05
602,07	-20,48
602,13	90,11
602,18	12,29
602,23	53,25
602,28	79,87
602,33	104,45
602,38	-10,24
602,43	79,87
602,48	14,34
602,54	-40,96
602,59	38,91
602,64	112,64
602,69	-71,68
602,74	120,83
602,79	-51,20
602,84	-57,34
602,89	-34,82
602,95	59,39
603,00	40,96
603,05	-14,34
603,10	0,00
603,15	-32,77
603,20	-28,67
603,25	-2,05
603,30	61,44
603,36	16,38
603,41	-45,06
603,46	14,34
603,51	-8,19
603,56	4,10
603,61	14,34
603,66	6,14
603,71	-45,06
603,76	-59,39
603,82	-43,01
603,87	26,62
603,92	45,06
603,97	-20,48
604,02	0,00
604,07	-2,05
604,12	104,45
604,17	30,72
604,22	14,34
604,28	67,58
604,33	6,14
604,38	-61,44
604,43	22,53
604,48	86,01
604,53	-8,19
604,58	-57,34
604,63	-38,91
604,68	32,77
604,73	47,10
604,78	-6,14
604,84	10,24
604,89	-26,62
604,94	40,96
604,99	2,05
605,04	-57,34
605,09	49,15
605,14	10,24
605,19	47,10
605,24	139,26
605,29	32,77
605,34	10,24
605,40	65,53
605,45	-2,05
605,50	34,82
605,55	55,30
605,60	-24,58
605,65	6,14
605,70	-32,77
605,75	-81,92
605,80	116,73
605,85	-2,05
605,90	-4,10
605,95	-32,77
606,00	-55,30
606,06	55,30
606,11	-18,43
606,16	-2,05
606,21	49,15
606,26	-36,86
606,31	75,77
606,36	-59,39
606,41	51,20
606,46	77,82
606,51	-6,14
606,56	71,68
606,61	30,72
606,66	-73,73
606,71	126,97
606,76	88,06
606,81	10,24
606,87	47,10
606,92	86,01
606,97	65,54
607,02	-65,54
607,07	38,91
607,12	-65,54
607,17	116,73
607,22	43,01
607,27	12,29
607,32	-14,34
607,37	14,34
607,42	20,48
607,47	38,91
607,52	-26,62
607,57	92,16
607,62	114,69
607,67	4,10
607,72	63,49
607,77	4,10
607,83	10,24
607,88	90,11
607,93	65,53
607,98	57,34
608,03	-16,38
608,08	104,45
608,13	79,87
608,18	-81,92
608,23	-22,53
608,28	30,72
608,33	88,06
608,38	-32,77
608,43	-86,01
608,48	51,20
608,53	-45,06
608,58	38,91
608,63	18,43
608,68	2,05
608,73	10,24
608,78	106,49
608,83	108,54
608,88	124,93
608,93	-18,43
608,98	67,58
609,03	6,14
609,08	77,82
609,13	69,63
609,18	-47,10
609,23	-43,01
609,28	75,77
609,33	-30,72
609,38	137,21
609,43	43,01
609,48	-51,20
609,53	133,12
609,58	51,20
609,63	79,87
609,69	40,96
609,74	43,01
609,79	73,73
609,84	96,25
609,89	94,21
609,94	-2,05
609,99	57,34
610,04	22,53
610,09	81,92
610,14	-22,53
610,19	20,48
610,24	-38,91
610,29	-24,58
610,34	-47,10
610,39	-16,38
610,44	-49,15
610,49	94,21
610,54	61,44
610,59	-65,54
610,64	-14,34
610,69	24,58
610,74	0,00
610,79	32,77
610,84	-4,10
610,89	-16,38
610,94	36,86
610,99	79,87
611,04	26,62
611,09	-75,77
611,14	8,19
611,18	-86,01
611,23	100,35
611,28	-90,11
611,33	61,44
611,38	49,15
611,43	40,96
611,48	-36,86
611,53	81,92
611,58	73,73
611,63	24,58
611,68	51,20
611,73	-153,60
611,78	59,39
611,83	53,25
611,88	-8,19
611,93	-26,62
611,98	61,44
612,03	96,25
612,08	32,77
612,13	100,35
612,18	-12,29
612,23	40,96
612,28	-10,24
612,33	-30,72
612,38	79,87
612,43	-24,58
612,48	-24,58
612,53	-43,01
612,58	-32,77
612,63	-28,67
612,68	-28,67
612,73	36,86
612,78	53,25
612,83	-65,54
612,88	40,96
612,93	-104,45
612,97	131,07
613,02	26,62
613,07	-16,38
613,12	116,73
613,17	-133,12
613,22	2,05
613,27	-53,25
613,32	28,67
613,37	-22,53
613,42	-51,20
613,47	61,44
613,52	108,54
613,57	-30,72
613,62	55,30
613,67	24,58
613,72	-26,62
613,77	-20,48
613,82	22,53
613,87	36,86
613,92	30,72
613,96	6,14
614,01	153,60
614,06	-65,54
614,11	24,58
614,16	178,17
614,21	63,49
614,26	16,38
614,31	40,96
614,36	118,78
614,41	61,44
614,46	-28,67
614,51	40,96
614,56	129,02
614,61	77,82
614,66	-22,53
614,70	24,58
614,75	-20,48
614,80	51,20
614,85	-51,20
614,90	51,20
614,95	10,24
615,00	49,15
615,05	4,10
615,10	-63,49
615,15	69,63
615,20	10,24
615,25	73,73
615,30	86,01
615,34	2,05
615,39	0,00
615,44	-10,24
615,49	133,12
615,54	32,77
615,59	-8,19
615,64	22,53
615,69	-26,62
615,74	92,16
615,79	-59,39
615,84	-77,82
615,89	-88,06
615,93	28,67
615,98	-98,30
616,03	-106,49
616,08	-10,24
616,13	34,82
616,18	30,72
616,23	110,59
616,28	28,67
616,33	86,01
616,38	8,19
616,42	77,82
616,47	20,48
616,52	4,10
616,57	-22,53
616,62	4,10
616,67	75,77
616,72	79,87
616,77	81,92
616,82	100,35
616,87	49,15
616,91	65,53
616,96	2,05
617,01	71,68
617,06	-81,92
617,11	112,64
617,16	71,68
617,21	40,96
617,26	28,67
617,31	22,53
617,35	133,12
617,40	110,59
617,45	69,63
617,50	-32,77
617,55	30,72
617,60	-34,82
617,65	47,10
617,70	10,24
617,74	-20,48
617,79	106,49
617,84	47,10
617,89	38,91
617,94	-22,53
617,99	73,73
618,04	-10,24
618,09	-83,97
618,13	2,05
618,18	-4,10
618,23	18,43
618,28	22,53
618,33	-47,10
618,38	28,67
618,43	4,10
618,48	28,67
618,52	43,01
618,57	24,58
618,62	51,20
618,67	53,25
618,72	-16,38
618,77	-83,97
618,82	-28,67
618,86	141,31
618,91	69,63
618,96	-36,86
619,01	-26,62
619,06	75,77
619,11	-36,86
619,16	40,96
619,20	12,29
619,25	-10,24
619,30	104,45
619,35	-22,53
619,40	-18,43
619,45	38,91
619,49	106,49
619,54	-14,34
619,59	65,53
619,64	88,06
619,69	-30,72
619,74	71,68
619,79	167,93
619,83	100,35
619,88	16,38
619,93	90,11
619,98	28,67
620,03	131,07
620,08	-10,24
620,12	-6,14
620,17	65,54
620,22	75,77
620,27	18,43
620,32	34,82
620,37	-32,77
620,41	32,77
620,46	-2,05
620,51	-126,97
620,56	22,53
620,61	90,11
620,66	-12,29
620,70	45,06
620,75	12,29
620,80	2,05
620,85	-24,58
620,90	98,30
620,95	59,39
620,99	67,58
621,04	149,50
621,09	104,45
621,14	-6,14
621,19	14,34
621,23	-22,53
621,28	-14,34
621,33	120,83
621,38	57,34
621,43	-28,67
621,48	53,25
621,52	26,62
621,57	151,55
621,62	40,96
621,67	2,05
621,72	32,77
621,76	32,77
621,81	10,24
621,86	24,58
621,91	32,77
621,96	-47,10
622,00	24,58
622,05	92,16
622,10	-73,73
622,15	-28,67
622,20	38,91
622,24	79,87
622,29	100,35
622,34	28,67
622,39	65,54
622,44	16,38
622,48	16,38
622,53	26,62
622,58	135,17
622,63	22,53
622,68	96,25
622,72	-24,58
622,77	-14,34
622,82	73,73
622,87	47,10
622,92	26,62
622,96	43,01
623,01	57,34
623,06	83,97
623,11	6,14
623,15	88,06
623,20	73,73
623,25	-4,10
623,30	14,34
623,35	4,10
623,39	45,06
623,44	-49,15
623,49	-30,72
623,54	8,19
623,58	69,63
623,63	102,40
623,68	122,88
623,73	114,69
623,78	-120,83
623,82	22,53
623,87	92,16
623,92	-10,24
623,97	36,86
624,01	-36,86
624,06	-10,24
624,11	-16,38
624,16	108,54
624,21	-30,72
624,25	38,91
624,30	20,48
624,35	133,12
624,40	92,16
624,44	-22,53
624,49	26,62
624,54	-12,29
624,59	-8,19
624,63	-10,24
624,68	-57,34
624,73	-40,96
624,78	86,01
624,82	120,83
624,87	49,15
624,92	20,48
624,97	59,39
625,01	90,11
625,06	-38,91
625,11	30,72
625,16	45,06
625,20	-18,43
625,25	22,53
625,30	-49,15
625,35	-65,54
625,39	-28,67
625,44	49,15
625,49	63,49
625,54	118,78
625,58	88,06
625,63	-16,38
625,68	14,34
625,73	18,43
625,77	-129,02
625,82	2,05
625,87	-10,24
625,92	83,97
625,96	77,82
626,01	98,30
626,06	161,79
626,10	-73,73
626,15	36,86
626,20	-4,10
626,25	86,01
626,29	-26,62
626,34	10,24
626,39	63,49
626,44	4,10
626,48	61,44
626,53	6,14
626,58	112,64
626,62	65,53
626,67	-40,96
626,72	2,05
626,77	4,10
626,81	53,25
626,86	-2,05
626,91	38,91
626,96	-12,29
627,00	-14,34
627,05	94,21
627,10	0,00
627,14	186,37
627,19	8,19
627,24	57,34
627,29	-28,67
627,33	-26,62
627,38	45,06
627,43	43,01
627,47	20,48
627,52	104,45
627,57	79,87
627,62	22,53
627,66	18,43
627,71	-40,96
627,76	86,01
627,80	-20,48
627,85	100,35
627,90	108,54
627,94	-2,05
627,99	-65,53
628,04	100,35
628,09	-40,96
628,13	104,45
628,18	-38,91
628,23	10,24
628,27	-6,14
628,32	-90,11
628,37	2,05
628,41	61,44
628,46	90,11
628,51	129,02
628,55	61,44
628,60	-34,82
628,65	67,58
628,70	120,83
628,74	26,62
628,79	69,63
628,84	71,68
628,88	-16,38
628,93	26,62
628,98	14,34
629,02	28,67
629,07	4,10
629,12	-45,06
629,16	-20,48
629,21	167,93
629,26	18,43
629,30	57,34
629,35	163,84
629,40	-45,06
629,44	-14,34
629,49	-26,62
629,54	88,06
629,58	18,43
629,63	81,92
629,68	14,34
629,72	-106,49
629,77	-63,49
629,82	18,43
629,86	71,68
629,91	75,77
629,96	43,01
630,00	-18,43
630,05	-16,38
630,10	12,29
630,14	75,77
630,19	36,86
630,24	73,73
630,28	110,59
630,33	-10,24
630,38	75,77
630,42	24,58
630,47	-88,06
630,52	2,05
630,56	6,14
630,61	-22,53
630,66	-73,73
630,70	102,40
630,75	8,19
630,80	-10,24
630,84	90,11
630,89	63,49
630,94	-36,86
630,98	26,62
631,03	-53,25
631,07	88,06
631,12	-73,73
631,17	-65,54
631,21	20,48
631,26	18,43
631,31	26,62
631,35	6,14
631,40	-110,59
631,45	159,74
631,49	36,86
631,54	73,73
631,59	-26,62
631,63	32,77
631,68	57,34
631,72	24,58
631,77	30,72
631,82	145,41
631,86	0,00
631,91	106,49
631,96	-26,62
632,00	10,24
632,05	67,58
632,09	65,53
632,14	26,62
632,19	-67,58
632,23	63,49
632,28	118,78
632,33	4,10
632,37	14,34
632,42	108,54
632,46	16,38
632,51	-81,92
632,56	108,54
632,60	65,54
632,65	-30,72
632,70	-108,54
632,74	65,53
632,79	51,20
632,83	36,86
632,88	28,67
632,93	45,06
632,97	2,05
633,02	32,77
633,06	61,44
633,11	65,54
633,16	10,24
633,20	45,06
633,25	141,31
633,29	43,01
633,34	36,86
633,39	-24,58
633,43	-18,43
633,48	40,96
633,52	-20,48
633,57	-10,24
633,62	81,92
633,66	194,56
633,71	22,53
633,75	45,06
633,80	16,38
633,85	20,48
633,89	-51,20
633,94	2,05
633,98	0,00
634,03	118,78
634,08	67,58
634,12	38,91
634,17	194,56
634,21	112,64
634,26	40,96
634,31	-28,67
634,35	79,87
634,40	-77,82
634,44	18,43
634,49	6,14
634,54	75,77
634,58	67,58
634,63	-141,31
634,67	61,44
634,72	34,82
634,76	157,69
634,81	61,44
634,86	112,64
634,90	77,82
634,95	-18,43
634,99	53,25
635,04	141,31
635,08	24,58
635,13	79,87
635,18	10,24
635,22	-43,01
635,27	30,72
635,31	-14,34
635,36	-20,48
635,40	94,21
635,45	59,39
635,50	122,88
635,54	96,25
635,59	-6,14
635,63	30,72
635,68	53,25
635,72	28,67
635,77	22,53
635,81	20,48
635,86	-8,19
635,91	63,49
635,95	192,51
636,00	43,01
636,04	20,48
636,09	114,69
636,13	100,35
636,18	-14,34
636,22	65,54
636,27	69,63
636,32	124,93
636,36	32,77
636,41	-47,10
636,45	-30,72
636,50	-8,19
636,54	120,83
636,59	118,78
636,63	30,72
636,68	129,02
636,73	10,24
636,77	-49,15
636,82	16,38
636,86	32,77
636,91	28,67
636,95	151,55
637,00	8,19
637,04	4,10
637,09	-8,19
637,13	-10,24
637,18	155,65
637,22	129,02
637,27	12,29
637,31	-49,15
637,36	24,58
637,41	98,30
637,45	-4,10
637,50	-6,14
637,54	86,01
637,59	-30,72
637,63	8,19
637,68	55,30
637,72	75,77
637,77	16,38
637,81	49,15
637,86	98,30
637,90	96,25
637,95	-28,67
637,99	40,96
638,04	100,35
638,08	12,29
638,13	86,01
638,17	18,43
638,22	86,01
638,26	30,72
638,31	24,58
638,35	32,77
638,40	24,58
638,45	63,49
638,49	-6,14
638,54	81,92
638,58	20,48
638,63	67,58
638,67	81,92
638,72	63,49
638,76	65,54
638,81	-24,58
638,85	32,77
638,90	67,58
638,94	10,24
638,99	116,73
639,03	-12,29
639,08	28,67
639,12	100,35
639,17	-16,38
639,21	49,15
639,26	59,39
639,30	47,10
639,35	77,82
639,39	49,15
639,44	8,19
639,48	38,91
639,53	55,30
639,57	67,58
639,62	75,77
639,66	53,25
639,70	-12,29
639,75	-40,96
639,79	65,54
639,84	96,25
639,88	-92,16
639,93	-51,20
639,97	20,48
640,02	43,01
640,06	-61,44
640,11	43,01
640,15	-12,29
640,20	81,92
640,24	67,58
640,29	30,72
640,33	98,30
640,38	26,62
640,42	112,64
640,47	-22,53
640,51	120,83
640,56	65,54
640,60	-8,19
640,65	83,97
640,69	96,25
640,73	83,97
640,78	14,34
640,82	14,34
640,87	79,87
640,91	157,69
640,96	86,01
641,00	12,29
641,05	73,73
641,09	65,54
641,14	55,30
641,18	8,19
641,23	137,21
641,27	18,43
641,32	122,88
641,36	108,54
641,40	20,48
641,45	147,45
641,49	100,35
641,54	86,01
641,58	18,43
641,63	102,40
641,67	65,53
641,72	155,65
641,76	-79,87
641,80	43,01
641,85	116,73
641,89	-4,10
641,94	65,53
641,98	59,39
642,03	14,34
642,07	43,01
642,12	-69,63
642,16	-28,67
642,20	-10,24
642,25	49,15
642,29	47,10
642,34	-49,15
642,38	20,48
642,43	30,72
642,47	49,15
642,52	-47,10
642,56	153,60
642,60	32,77
642,65	-14,34
642,69	12,29
642,74	16,38
642,78	143,36
642,83	86,01
642,87	-43,01
642,91	-40,96
642,96	98,30
643,00	-24,58
643,05	67,58
643,09	174,08
643,14	133,12
643,18	92,16
643,22	-38,91
643,27	86,01
643,31	-2,05
643,36	-51,20
643,40	-36,86
643,45	106,49
643,49	22,53
643,53	-40,96
643,58	-6,14
643,62	-38,91
643,67	116,73
643,71	6,14
643,75	69,63
643,80	63,49
643,84	12,29
643,89	-32,77
643,93	92,16
643,97	47,10
644,02	51,20
644,06	-20,48
644,11	-12,29
644,15	-26,62
644,19	14,34
644,24	65,54
644,28	-12,29
644,33	77,82
644,37	53,25
644,42	-20,48
644,46	28,67
644,50	38,91
644,55	34,82
644,59	51,20
644,63	24,58
644,68	51,20
644,72	6,14
644,77	75,77
644,81	-55,30
644,85	-12,29
644,90	77,82
644,94	20,48
644,99	-45,06
645,03	20,48
645,07	-94,21
645,12	16,38
645,16	67,58
645,21	94,21
645,25	4,10
645,29	8,19
645,34	32,77
645,38	-57,34
645,42	-26,62
645,47	-18,43
645,51	12,29
645,56	16,38
645,60	139,26
645,64	147,45
645,69	-14,34
645,73	141,31
645,77	55,30
645,82	-22,53
645,86	90,11
645,91	-8,19
645,95	-26,62
645,99	71,68
646,04	83,97
646,08	30,72
646,12	-4,10
646,17	-2,05
646,21	-59,39
646,26	90,11
646,30	79,87
646,34	20,48
646,39	32,77
646,43	126,97
646,47	-18,43
646,52	16,38
646,56	118,78
646,60	88,06
646,65	22,53
646,69	102,40
646,73	-40,96
646,78	65,54
646,82	45,06
646,87	-18,43
646,91	53,25
646,95	45,06
647,00	24,58
647,04	79,87
647,08	116,73
647,13	75,77
647,17	55,30
647,21	67,58
647,26	-63,49
647,30	8,19
647,34	94,21
647,39	49,15
647,43	-30,72
647,47	16,38
647,52	200,70
647,56	36,86
647,60	-22,53
647,65	14,34
647,69	83,97
647,73	-45,06
647,78	-59,39
647,82	40,96
647,86	112,64
647,91	-81,92
647,95	38,91
647,99	43,01
648,04	131,07
648,08	16,38
648,12	112,64
648,17	8,19
648,21	26,62
648,25	28,67
648,30	-6,14
648,34	0,00
648,38	-22,53
648,43	90,11
648,47	102,40
648,51	61,44
648,56	47,10
648,60	16,38
648,64	20,48
648,69	22,53
648,73	2,05
648,77	75,77
648,82	81,92
648,86	-38,91
648,90	98,30
648,95	71,68
648,99	116,73
649,03	-67,58
649,07	-18,43
649,12	112,64
649,16	-6,14
649,20	96,25
649,25	79,87
649,29	75,77
649,33	26,62
649,38	96,25
649,42	-96,25
649,46	96,25
649,51	26,62
649,55	43,01
649,59	26,62
649,63	88,06
649,68	61,44
649,72	-14,34
649,76	49,15
649,81	20,48
649,85	81,92
649,89	71,68
649,93	-86,01
649,98	90,11
650,02	-55,30
650,06	55,30
650,11	32,77
650,15	51,20
650,19	83,97
650,24	67,58
650,28	26,62
650,32	75,77
650,36	135,17
650,41	43,01
650,45	-59,39
650,49	73,73
650,54	45,06
650,58	6,14
650,62	55,30
650,66	-59,39
650,71	38,91
650,75	18,43
650,79	14,34
650,83	32,77
650,88	63,49
650,92	98,30
650,96	59,39
651,01	67,58
651,05	-30,72
651,09	98,30
651,13	79,87
651,18	143,36
651,22	12,29
651,26	69,63
651,30	-24,58
651,35	-22,53
651,39	90,11
651,43	-6,14
651,48	161,79
651,52	20,48
651,56	-18,43
651,60	-45,06
651,65	61,44
651,69	81,92
651,73	28,67
651,77	-36,86
651,82	-67,58
651,86	-26,62
651,90	-4,10
651,94	-36,86
651,99	4,10
652,03	83,97
652,07	4,10
652,11	112,64
652,16	65,53
652,20	-55,30
652,24	59,39
652,28	90,11
652,33	-4,10
652,37	73,73
652,41	116,73
652,45	24,58
652,50	-24,58
652,54	18,43
652,58	-90,11
652,62	163,84
652,67	18,43
652,71	2,05
652,75	79,87
652,79	2,05
652,84	57,34
652,88	8,19
652,92	18,43
652,96	65,54
653,00	71,68
653,05	110,59
653,09	32,77
653,13	-57,34
653,17	149,50
653,22	30,72
653,26	36,86
653,30	-100,35
653,34	-4,10
653,39	-6,14
653,43	174,08
653,47	6,14
653,51	51,20
653,55	55,30
653,60	118,78
653,64	-24,58
653,68	59,39
653,72	-2,05
653,77	126,97
653,81	-83,97
653,85	40,96
653,89	-32,77
653,93	-71,68
653,98	122,88
654,02	67,58
654,06	-38,91
654,10	98,30
654,14	6,14
654,19	34,82
654,23	-4,10
654,27	67,58
654,31	12,29
654,35	90,11
654,40	-61,44
654,44	22,53
654,48	24,58
654,52	81,92
654,57	81,92
654,61	106,49
654,65	-14,34
654,69	0,00
654,73	79,87
654,78	63,49
654,82	55,30
654,86	-40,96
654,90	-32,77
654,94	122,88
654,98	81,92
655,03	-59,39
655,07	26,62
655,11	-98,30
655,15	100,35
655,19	-12,29
655,24	-38,91
655,28	61,44
655,32	69,63
655,36	65,54
655,40	4,10
655,45	94,21
655,49	49,15
655,53	36,86
655,57	-24,58
655,61	-55,30
655,65	34,82
655,70	-20,48
655,74	24,58
655,78	126,97
655,82	102,40
655,86	112,64
655,91	24,58
655,95	-40,96
655,99	-30,72
656,03	22,53
656,07	-57,34
656,11	100,35
656,16	28,67
656,20	18,43
656,24	-36,86
656,28	79,87
656,32	79,87
656,36	2,05
656,41	53,25
656,45	153,60
656,49	43,01
656,53	-45,06
656,57	40,96
656,61	-2,05
656,66	61,44
656,70	55,30
656,74	-36,86
656,78	47,10
656,82	-28,67
656,86	-14,34
656,91	49,15
656,95	67,58
656,99	-43,01
657,03	12,29
657,07	172,03
657,11	81,92
657,15	90,11
657,20	114,69
657,24	71,68
657,28	-26,62
657,32	-24,58
657,36	2,05
657,40	106,49
657,44	-88,06
657,49	-32,77
657,53	98,30
657,57	65,54
657,61	43,01
657,65	-6,14
657,69	110,59
657,73	71,68
657,78	24,58
657,82	86,01
657,86	12,29
657,90	67,58
657,94	59,39
657,98	49,15
658,02	-38,91
658,07	24,58
658,11	51,20
658,15	49,15
658,19	8,19
658,23	-36,86
658,27	6,14
658,31	14,34
658,35	43,01
658,40	-59,39
658,44	-88,06
658,48	14,34
658,52	-24,58
658,56	71,68
658,60	-4,10
658,64	53,25
658,68	81,92
658,73	108,54
658,77	-92,16
658,81	34,82
658,85	-12,29
658,89	-20,48
658,93	26,62
658,97	94,21
659,01	96,25
659,06	22,53
659,10	26,62
659,14	32,77
659,18	169,98
659,22	-10,24
659,26	-20,48
659,30	83,97
659,34	92,16
659,38	96,25
659,42	100,35
659,47	-32,77
659,51	10,24
659,55	51,20
659,59	108,54
659,63	24,58
659,67	36,86
659,71	-10,24
659,75	47,10
659,79	53,25
659,83	32,77
659,88	-79,87
659,92	40,96
659,96	-59,39
660,00	59,39
660,04	65,53
660,08	-77,82
660,12	81,92
660,16	-10,24
660,20	59,39
660,24	-14,34
660,28	96,25
660,33	51,20
660,37	-26,62
660,41	59,39
660,45	69,63
660,49	-96,25
660,53	-4,10
660,57	-24,58
660,61	28,67
660,65	75,77
660,69	-16,38
660,73	24,58
660,77	-53,25
660,82	-14,34
660,86	4,10
660,90	79,87
660,94	69,63
660,98	10,24
661,02	-53,25
661,06	-6,14
661,10	118,78
661,14	143,36
661,18	-55,30
661,22	16,38
661,26	75,77
661,30	-106,49
661,34	90,11
661,39	36,86
661,43	-26,62
661,47	57,34
661,51	81,92
661,55	53,25
661,59	36,86
661,63	18,43
661,67	-22,53
661,71	-8,19
661,75	12,29
661,79	-16,38
661,83	4,10
661,87	83,97
661,91	6,14
661,95	51,20
661,99	4,10
662,03	38,91
662,08	14,34
662,12	34,82
662,16	12,29
662,20	51,20
662,24	57,34
662,28	96,25
662,32	-26,62
662,36	-34,82
662,40	88,06
662,44	65,53
662,48	45,06
662,52	32,77
662,56	-92,16
662,60	45,06
662,64	67,58
662,68	-16,38
662,72	65,54
662,76	-71,68
662,80	-26,62
662,84	14,34
662,88	-47,10
662,92	4,10
662,96	16,38
663,00	77,82
663,04	59,39
663,09	8,19
663,13	30,72
663,17	36,86
663,21	51,20
663,25	24,58
663,29	10,24
663,33	69,63
663,37	38,91
663,41	112,64
663,45	94,21
663,49	6,14
663,53	114,69
663,57	47,10
663,61	57,34
663,65	-313,34
663,69	10,24
663,73	98,30
663,77	8,19
663,81	59,39
663,85	38,91
663,89	110,59
663,93	120,83
663,97	116,73
664,01	59,39
664,05	59,39
664,09	49,15
664,13	67,58
664,17	-20,48
664,21	38,91
664,25	55,30
664,29	6,14
664,33	-36,86
664,37	38,91
664,41	-4,10
664,45	-6,14
664,49	53,25
664,53	116,73
664,57	49,15
664,61	8,19
664,65	57,34
664,69	-63,49
664,73	69,63
664,77	30,72
664,81	55,30
664,85	108,54
664,89	118,78
664,93	-51,20
664,97	34,82
665,01	122,88
665,05	43,01
665,09	4,10
665,13	57,34
665,17	2,05
665,21	36,86
665,25	-55,30
665,29	69,63
665,33	71,68
665,37	18,43
665,41	4,10
665,45	47,10
665,49	40,96
665,53	32,77
665,57	-30,72
665,61	73,73
665,65	75,77
665,69	-18,43
665,73	73,73
665,77	-77,82
665,81	-92,16
665,85	-22,53
665,89	38,91
665,92	53,25
665,96	22,53
666,00	67,58
666,04	6,14
666,08	-61,44
666,12	-34,82
666,16	94,21
666,20	51,20
666,24	147,45
666,28	120,83
666,32	-14,34
666,36	51,20
666,40	-45,06
666,44	139,26
666,48	-24,58
666,52	-36,86
666,56	137,21
666,60	16,38
666,64	86,01
666,68	-100,35
666,72	-12,29
666,76	-34,82
666,80	40,96
666,84	51,20
666,88	102,40
666,91	88,06
666,95	20,48
666,99	24,58
667,03	-92,16
667,07	-47,10
667,11	53,25
667,15	141,31
667,19	133,12
667,23	43,01
667,27	12,29
667,31	61,44
667,35	96,25
667,39	45,06
667,43	47,10
667,47	26,62
667,51	30,72
667,55	71,68
667,58	16,38
667,62	231,42
667,66	323,58
667,70	647,16
667,74	1030,13
667,78	1314,80
667,82	1531,88
667,86	1441,77
667,90	2025,44
667,94	2502,62
667,98	2398,17
668,02	2635,74
668,06	2785,24
668,10	2695,13
668,13	2856,92
668,17	3053,52
668,21	3272,65
668,25	3215,31
668,29	2758,61
668,33	2179,04
668,37	1742,82
668,41	1767,40
668,45	1845,22
668,49	2072,54
668,53	1959,91
668,57	1724,39
668,60	1490,92
668,64	1275,88
668,68	1277,93
668,72	1230,83
668,76	1447,91
668,80	1581,03
668,84	1433,58
668,88	1322,99
668,92	1079,28
668,96	1093,62
669,00	780,28
669,03	753,65
669,07	561,14
669,11	485,37
669,15	538,62
669,19	296,96
669,23	260,09
669,27	192,51
669,31	315,39
669,35	165,89
669,39	110,59
669,42	59,39
669,46	186,37
669,50	102,40
669,54	-6,14
669,58	77,82
669,62	28,67
669,66	83,97
669,70	71,68
669,74	-71,68
669,78	65,53
669,81	-69,63
669,85	32,77
669,89	102,40
669,93	47,10
669,97	-14,34
670,01	32,77
670,05	34,82
670,09	2,05
670,12	-112,64
670,16	69,63
670,20	151,55
670,24	38,91
670,28	51,20
670,32	38,91
670,36	143,36
670,40	131,07
670,43	-30,72
670,47	-24,58
670,51	176,13
670,55	16,38
670,59	-26,62
670,63	0,00
670,67	0,00
670,71	-34,82
670,74	38,91
670,78	4,10
670,82	75,77
670,86	-8,19
670,90	-10,24
670,94	-18,43
670,98	-79,87
671,01	36,86
671,05	112,64
671,09	10,24
671,13	-26,62
671,17	26,62
671,21	75,77
671,25	122,88
671,28	100,35
671,32	18,43
671,36	151,55
671,40	102,40
671,44	65,54
671,48	110,59
671,52	147,45
671,55	49,15
671,59	122,88
671,63	55,30
671,67	-77,82
671,71	0,00
671,75	81,92
671,79	67,58
671,82	-57,34
671,86	16,38
671,90	43,01
671,94	0,00
>>>>>End Processed Spectral Data<<<<<
