SpectraSuite Datei
++++++++++++++++++++++++++++++++++++
Datum: Wed Nov 28 10:30:38 CET 2018
Benutzer: Raman
Dark-Spektrum vorhanden: Ja
Referenz-Spektrum vorhanden: Nein
Zahl der probierten Teilspektren: 1
Spektrometer: USB4F00098
Integrationszeit (usec): 500000 (USB4F00098)
Spektren Durchschnitt berechnet: 1 (USB4F00098)
Boxcar Glättung: 0 (USB4F00098)
Dunkelstromkorrektur: Nein (USB4F00098)
Puls/Lampe aktiviert: Nein (USB4F00098)
Correct for Detector Non-linearity: Nein (USB4F00098)
Streulichtkorrektur: Nein (USB4F00098)
Anzahl Pixel in verarbeitetem Spektrum: 3648
>>>>>Begin Processed Spectral Data<<<<<
476,77	24,58
476,84	24,58
476,91	24,58
476,98	28,67
477,04	-47,10
477,11	-57,34
477,18	49,15
477,25	-49,15
477,32	-108,54
477,39	-53,25
477,45	20,48
477,52	159,74
477,59	51,20
477,66	65,54
477,73	-10,24
477,80	-4,10
477,86	-36,86
477,93	43,01
478,00	73,73
478,07	114,69
478,14	38,91
478,21	61,44
478,27	-73,73
478,34	-40,96
478,41	-88,06
478,48	-2,05
478,55	-61,44
478,62	-38,91
478,68	61,44
478,75	57,34
478,82	-20,48
478,89	-28,67
478,96	12,29
479,02	34,82
479,09	-30,72
479,16	-14,34
479,23	-20,48
479,30	-32,77
479,37	-40,96
479,43	-90,11
479,50	-65,53
479,57	30,72
479,64	69,63
479,71	10,24
479,77	-26,62
479,84	16,38
479,91	-26,62
479,98	-10,24
480,05	102,40
480,11	-4,10
480,18	40,96
480,25	-81,92
480,32	-83,97
480,39	-59,39
480,45	-4,10
480,52	20,48
480,59	-159,74
480,66	-65,53
480,73	65,54
480,79	14,34
480,86	22,53
480,93	-32,77
481,00	-20,48
481,07	47,10
481,13	16,38
481,20	43,01
481,27	34,82
481,34	18,43
481,41	32,77
481,47	-40,96
481,54	6,14
481,61	67,58
481,68	-47,10
481,74	45,06
481,81	98,30
481,88	-102,40
481,95	0,00
482,02	-55,30
482,08	-51,20
482,15	-45,06
482,22	-59,39
482,29	-71,68
482,35	2,05
482,42	32,77
482,49	120,83
482,56	-61,44
482,63	-55,30
482,69	-133,12
482,76	-24,58
482,83	55,30
482,90	40,96
482,96	4,10
483,03	16,38
483,10	-6,14
483,17	-22,53
483,24	-59,39
483,30	8,19
483,37	14,34
483,44	-6,14
483,51	-92,16
483,57	40,96
483,64	-24,58
483,71	30,72
483,78	-12,29
483,84	34,82
483,91	-51,20
483,98	159,74
484,05	51,20
484,11	-4,10
484,18	-47,10
484,25	10,24
484,32	-126,97
484,38	-75,77
484,45	-137,21
484,52	-38,91
484,59	-45,06
484,65	-63,49
484,72	-18,43
484,79	-32,77
484,86	112,64
484,92	-12,29
484,99	-114,69
485,06	0,00
485,13	57,34
485,19	57,34
485,26	67,58
485,33	143,36
485,40	4,10
485,46	28,67
485,53	-20,48
485,60	-2,05
485,67	-77,82
485,73	-116,73
485,80	45,06
485,87	30,72
485,94	-16,38
486,00	75,77
486,07	-2,05
486,14	-71,68
486,20	22,53
486,27	79,87
486,34	-51,20
486,41	81,92
486,47	75,77
486,54	63,49
486,61	40,96
486,68	73,73
486,74	151,55
486,81	182,27
486,88	38,91
486,94	155,65
487,01	-30,72
487,08	36,86
487,15	49,15
487,21	-67,58
487,28	55,30
487,35	-43,01
487,41	-143,36
487,48	-40,96
487,55	26,62
487,62	-16,38
487,68	-36,86
487,75	-18,43
487,82	-71,68
487,88	-45,06
487,95	30,72
488,02	-40,96
488,09	-4,10
488,15	83,97
488,22	12,29
488,29	36,86
488,35	26,62
488,42	-79,87
488,49	129,02
488,56	-20,48
488,62	-122,88
488,69	-36,86
488,76	-112,64
488,82	8,19
488,89	69,63
488,96	30,72
489,02	79,87
489,09	-16,38
489,16	63,49
489,22	94,21
489,29	0,00
489,36	53,25
489,43	-16,38
489,49	30,72
489,56	10,24
489,63	-49,15
489,69	-51,20
489,76	-28,67
489,83	100,35
489,89	-20,48
489,96	24,58
490,03	18,43
490,09	34,82
490,16	-63,49
490,23	-51,20
490,29	-100,35
490,36	-40,96
490,43	30,72
490,50	10,24
490,56	4,10
490,63	22,53
490,70	69,63
490,76	-4,10
490,83	157,69
490,90	18,43
490,96	45,06
491,03	-51,20
491,10	-55,30
491,16	10,24
491,23	14,34
491,30	-43,01
491,36	6,14
491,43	65,54
491,50	47,10
491,56	114,69
491,63	-92,16
491,70	75,77
491,76	67,58
491,83	94,21
491,90	53,25
491,96	-67,58
492,03	-53,25
492,10	20,48
492,16	157,69
492,23	86,01
492,30	-81,92
492,36	161,79
492,43	-28,67
492,50	106,49
492,56	69,63
492,63	43,01
492,70	26,62
492,76	22,53
492,83	-4,10
492,89	2,05
492,96	-88,06
493,03	59,39
493,09	96,25
493,16	-51,20
493,23	20,48
493,29	18,43
493,36	-10,24
493,43	-45,06
493,49	-12,29
493,56	43,01
493,63	53,25
493,69	-38,91
493,76	4,10
493,82	45,06
493,89	-38,91
493,96	-6,14
494,02	94,21
494,09	4,10
494,16	-38,91
494,22	51,20
494,29	-28,67
494,36	6,14
494,42	-20,48
494,49	-22,53
494,55	0,00
494,62	73,73
494,69	34,82
494,75	59,39
494,82	-10,24
494,89	-2,05
494,95	43,01
495,02	4,10
495,08	-2,05
495,15	-83,97
495,22	-120,83
495,28	-126,97
495,35	-178,17
495,42	14,34
495,48	-10,24
495,55	12,29
495,61	-28,67
495,68	104,45
495,75	-32,77
495,81	-96,25
495,88	-4,10
495,94	-36,86
496,01	-67,58
496,08	8,19
496,14	45,06
496,21	18,43
496,28	-38,91
496,34	-102,40
496,41	-16,38
496,47	43,01
496,54	14,34
496,61	73,73
496,67	63,49
496,74	102,40
496,80	-14,34
496,87	38,91
496,94	0,00
497,00	63,49
497,07	-63,49
497,13	40,96
497,20	-53,25
497,27	32,77
497,33	-43,01
497,40	0,00
497,46	24,58
497,53	-47,10
497,60	34,82
497,66	61,44
497,73	-32,77
497,79	-36,86
497,86	-45,06
497,93	-20,48
497,99	69,63
498,06	-71,68
498,12	-163,84
498,19	86,01
498,25	-102,40
498,32	-38,91
498,39	-24,58
498,45	61,44
498,52	65,54
498,58	12,29
498,65	-61,44
498,72	22,53
498,78	-16,38
498,85	-6,14
498,91	-24,58
498,98	-59,39
499,04	61,44
499,11	4,10
499,18	0,00
499,24	-6,14
499,31	-34,82
499,37	108,54
499,44	-145,41
499,50	-16,38
499,57	-43,01
499,64	4,10
499,70	-65,53
499,77	34,82
499,83	-10,24
499,90	51,20
499,96	-6,14
500,03	-81,92
500,09	-20,48
500,16	-65,54
500,23	77,82
500,29	-10,24
500,36	51,20
500,42	34,82
500,49	-79,87
500,55	-71,68
500,62	-40,96
500,68	30,72
500,75	-16,38
500,82	20,48
500,88	-47,10
500,95	30,72
501,01	184,32
501,08	10,24
501,14	157,69
501,21	231,42
501,27	509,94
501,34	477,18
501,41	546,81
501,47	651,25
501,54	862,19
501,60	651,25
501,67	796,66
501,73	325,63
501,80	485,37
501,86	442,36
501,93	350,20
501,99	366,59
502,06	202,75
502,12	129,02
502,19	178,17
502,26	184,32
502,32	49,15
502,39	98,30
502,45	-100,35
502,52	-8,19
502,58	-10,24
502,65	24,58
502,71	126,97
502,78	-38,91
502,84	20,48
502,91	49,15
502,97	40,96
503,04	18,43
503,10	-16,38
503,17	-83,97
503,23	-12,29
503,30	-75,77
503,37	69,63
503,43	-14,34
503,50	-16,38
503,56	-94,21
503,63	79,87
503,69	-118,78
503,76	90,11
503,82	14,34
503,89	-69,63
503,95	-47,10
504,02	43,01
504,08	106,49
504,15	100,35
504,21	-32,77
504,28	-96,25
504,34	10,24
504,41	90,11
504,47	0,00
504,54	-12,29
504,60	-57,34
504,67	53,25
504,73	14,34
504,80	108,54
504,86	-49,15
504,93	-20,48
504,99	63,49
505,06	69,63
505,12	-2,05
505,19	-34,82
505,25	88,06
505,32	-28,67
505,38	81,92
505,45	-16,38
505,51	47,10
505,58	22,53
505,64	-55,30
505,71	-30,72
505,77	-6,14
505,84	30,72
505,90	100,35
505,97	-47,10
506,03	-147,45
506,10	-36,86
506,16	71,68
506,23	-14,34
506,29	2,05
506,36	-4,10
506,42	-32,77
506,49	-40,96
506,55	-47,10
506,62	28,67
506,68	-43,01
506,75	-2,05
506,81	6,14
506,87	-49,15
506,94	10,24
507,00	22,53
507,07	71,68
507,13	47,10
507,20	-12,29
507,26	6,14
507,33	-53,25
507,39	4,10
507,46	-40,96
507,52	32,77
507,59	36,86
507,65	30,72
507,72	20,48
507,78	73,73
507,85	-221,18
507,91	-8,19
507,97	16,38
508,04	63,49
508,10	-26,62
508,17	83,97
508,23	-120,83
508,30	151,55
508,36	28,67
508,43	10,24
508,49	-55,30
508,56	-49,15
508,62	-22,53
508,69	-47,10
508,75	-24,58
508,81	120,83
508,88	18,43
508,94	38,91
509,01	20,48
509,07	-104,45
509,14	-10,24
509,20	-14,34
509,27	81,92
509,33	-40,96
509,39	102,40
509,46	149,50
509,52	22,53
509,59	20,48
509,65	-12,29
509,72	51,20
509,78	10,24
509,85	14,34
509,91	8,19
509,97	-2,05
510,04	81,92
510,10	40,96
510,17	88,06
510,23	0,00
510,30	-30,72
510,36	18,43
510,42	-32,77
510,49	6,14
510,55	22,53
510,62	32,77
510,68	135,17
510,75	-12,29
510,81	159,74
510,88	49,15
510,94	-88,06
511,00	-90,11
511,07	2,05
511,13	28,67
511,20	-28,67
511,26	38,91
511,32	49,15
511,39	-69,63
511,45	-12,29
511,52	-45,06
511,58	-36,86
511,65	-53,25
511,71	-94,21
511,77	-57,34
511,84	-28,67
511,90	-28,67
511,97	-122,88
512,03	0,00
512,09	65,54
512,16	-47,10
512,22	-36,86
512,29	-67,58
512,35	-16,38
512,42	-55,30
512,48	-6,14
512,54	36,86
512,61	12,29
512,67	-75,77
512,74	12,29
512,80	61,44
512,86	-34,82
512,93	88,06
512,99	-16,38
513,06	-104,45
513,12	-12,29
513,18	-49,15
513,25	36,86
513,31	-36,86
513,38	-83,97
513,44	16,38
513,50	26,62
513,57	59,39
513,63	-45,06
513,69	-14,34
513,76	-92,16
513,82	0,00
513,89	32,77
513,95	-2,05
514,01	-61,44
514,08	-57,34
514,14	120,83
514,21	34,82
514,27	-131,07
514,33	22,53
514,40	10,24
514,46	88,06
514,53	59,39
514,59	61,44
514,65	6,14
514,72	14,34
514,78	118,78
514,84	-36,86
514,91	75,77
514,97	47,10
515,04	-4,10
515,10	-34,82
515,16	-126,97
515,23	-51,20
515,29	45,06
515,35	-2,05
515,42	18,43
515,48	-69,63
515,54	53,25
515,61	-38,91
515,67	59,39
515,74	10,24
515,80	79,87
515,86	20,48
515,93	-12,29
515,99	61,44
516,05	-59,39
516,12	-83,97
516,18	-69,63
516,24	90,11
516,31	141,31
516,37	-55,30
516,44	-34,82
516,50	26,62
516,56	-63,49
516,63	38,91
516,69	18,43
516,75	40,96
516,82	96,25
516,88	-83,97
516,94	-153,60
517,01	-34,82
517,07	34,82
517,13	-47,10
517,20	88,06
517,26	65,54
517,32	-22,53
517,39	4,10
517,45	-90,11
517,52	34,82
517,58	-40,96
517,64	59,39
517,71	-20,48
517,77	63,49
517,83	-49,15
517,90	-14,34
517,96	14,34
518,02	45,06
518,09	-43,01
518,15	-4,10
518,21	40,96
518,28	-10,24
518,34	-4,10
518,40	-2,05
518,47	53,25
518,53	-49,15
518,59	-71,68
518,66	110,59
518,72	61,44
518,78	-57,34
518,85	-22,53
518,91	36,86
518,97	30,72
519,03	-47,10
519,10	16,38
519,16	-14,34
519,22	26,62
519,29	-65,53
519,35	12,29
519,41	10,24
519,48	-53,25
519,54	94,21
519,60	-14,34
519,67	83,97
519,73	-12,29
519,79	-30,72
519,86	-38,91
519,92	47,10
519,98	-81,92
520,05	-22,53
520,11	65,53
520,17	49,15
520,23	2,05
520,30	4,10
520,36	112,64
520,42	12,29
520,49	-63,49
520,55	55,30
520,61	-22,53
520,68	-40,96
520,74	-18,43
520,80	2,05
520,87	75,77
520,93	-6,14
520,99	145,41
521,05	51,20
521,12	-32,77
521,18	67,58
521,24	-16,38
521,31	18,43
521,37	65,53
521,43	-18,43
521,49	40,96
521,56	36,86
521,62	77,82
521,68	63,49
521,75	104,45
521,81	-59,39
521,87	-106,49
521,93	-34,82
522,00	26,62
522,06	4,10
522,12	43,01
522,19	6,14
522,25	22,53
522,31	36,86
522,37	-129,02
522,44	26,62
522,50	-55,30
522,56	20,48
522,63	-4,10
522,69	16,38
522,75	-4,10
522,81	-51,20
522,88	100,35
522,94	-96,25
523,00	90,11
523,06	16,38
523,13	47,10
523,19	-106,49
523,25	-18,43
523,32	-10,24
523,38	63,49
523,44	-4,10
523,50	-18,43
523,57	-16,38
523,63	53,25
523,69	-26,62
523,75	-38,91
523,82	49,15
523,88	-24,58
523,94	-45,06
524,00	-116,73
524,07	79,87
524,13	-51,20
524,19	12,29
524,25	8,19
524,32	34,82
524,38	-47,10
524,44	-61,44
524,50	-36,86
524,57	47,10
524,63	71,68
524,69	75,77
524,75	-55,30
524,82	43,01
524,88	-28,67
524,94	-30,72
525,00	-12,29
525,07	67,58
525,13	18,43
525,19	-8,19
525,25	-45,06
525,32	10,24
525,38	-2,05
525,44	145,41
525,50	69,63
525,57	67,58
525,63	8,19
525,69	36,86
525,75	-65,54
525,82	-26,62
525,88	71,68
525,94	-38,91
526,00	-63,49
526,07	67,58
526,13	-38,91
526,19	22,53
526,25	4,10
526,31	-118,78
526,38	-108,54
526,44	-30,72
526,50	14,34
526,56	-12,29
526,63	-73,73
526,69	-63,49
526,75	-24,58
526,81	-43,01
526,87	-47,10
526,94	36,86
527,00	47,10
527,06	55,30
527,12	-73,73
527,19	-59,39
527,25	38,91
527,31	-26,62
527,37	28,67
527,43	-10,24
527,50	45,06
527,56	-81,92
527,62	-38,91
527,68	16,38
527,75	-38,91
527,81	22,53
527,87	-88,06
527,93	-10,24
527,99	-34,82
528,06	-24,58
528,12	-4,10
528,18	-12,29
528,24	-81,92
528,30	65,54
528,37	-18,43
528,43	81,92
528,49	-106,49
528,55	10,24
528,61	4,10
528,68	57,34
528,74	-69,63
528,80	169,98
528,86	14,34
528,92	4,10
528,99	6,14
529,05	81,92
529,11	2,05
529,17	-6,14
529,23	73,73
529,29	69,63
529,36	-69,63
529,42	0,00
529,48	28,67
529,54	-32,77
529,60	-49,15
529,67	188,41
529,73	-75,77
529,79	-47,10
529,85	-77,82
529,91	-63,49
529,98	-55,30
530,04	75,77
530,10	-57,34
530,16	-2,05
530,22	20,48
530,28	-12,29
530,35	73,73
530,41	16,38
530,47	40,96
530,53	-51,20
530,59	-4,10
530,65	-4,10
530,72	-10,24
530,78	40,96
530,84	-96,25
530,90	40,96
530,96	-2,05
531,02	-83,97
531,09	38,91
531,15	-43,01
531,21	34,82
531,27	2,05
531,33	10,24
531,39	-71,68
531,46	65,53
531,52	43,01
531,58	-40,96
531,64	0,00
531,70	4,10
531,76	4,10
531,83	45,06
531,89	-40,96
531,95	-40,96
532,01	-43,01
532,07	-18,43
532,13	-53,25
532,19	-73,73
532,26	43,01
532,32	24,58
532,38	-92,16
532,44	-30,72
532,50	-34,82
532,56	-22,53
532,63	12,29
532,69	-75,77
532,75	-40,96
532,81	-20,48
532,87	71,68
532,93	81,92
532,99	16,38
533,06	-38,91
533,12	96,25
533,18	20,48
533,24	45,06
533,30	-18,43
533,36	0,00
533,42	47,10
533,48	26,62
533,55	-30,72
533,61	18,43
533,67	-32,77
533,73	59,39
533,79	36,86
533,85	4,10
533,91	32,77
533,98	-55,30
534,04	-51,20
534,10	32,77
534,16	-18,43
534,22	-133,12
534,28	90,11
534,34	14,34
534,40	57,34
534,47	-63,49
534,53	63,49
534,59	81,92
534,65	0,00
534,71	-77,82
534,77	2,05
534,83	-32,77
534,89	-20,48
534,95	10,24
535,02	-96,25
535,08	-26,62
535,14	-12,29
535,20	24,58
535,26	-18,43
535,32	-110,59
535,38	43,01
535,44	61,44
535,50	10,24
535,57	94,21
535,63	-55,30
535,69	-14,34
535,75	-98,30
535,81	-10,24
535,87	-2,05
535,93	-34,82
535,99	6,14
536,05	22,53
536,11	30,72
536,18	45,06
536,24	120,83
536,30	-24,58
536,36	57,34
536,42	-28,67
536,48	-26,62
536,54	18,43
536,60	-38,91
536,66	-22,53
536,72	-4,10
536,79	10,24
536,85	63,49
536,91	-57,34
536,97	-81,92
537,03	51,20
537,09	-20,48
537,15	-24,58
537,21	28,67
537,27	45,06
537,33	-57,34
537,39	32,77
537,45	-4,10
537,52	-12,29
537,58	-77,82
537,64	61,44
537,70	-43,01
537,76	77,82
537,82	-49,15
537,88	-45,06
537,94	-8,19
538,00	30,72
538,06	32,77
538,12	143,36
538,18	-40,96
538,24	20,48
538,31	-16,38
538,37	24,58
538,43	75,77
538,49	-114,69
538,55	38,91
538,61	104,45
538,67	-30,72
538,73	28,67
538,79	-30,72
538,85	38,91
538,91	8,19
538,97	-106,49
539,03	-2,05
539,09	-47,10
539,15	-20,48
539,21	-14,34
539,28	151,55
539,34	36,86
539,40	-67,58
539,46	40,96
539,52	14,34
539,58	36,86
539,64	-129,02
539,70	-6,14
539,76	0,00
539,82	-30,72
539,88	16,38
539,94	0,00
540,00	53,25
540,06	102,40
540,12	0,00
540,18	-53,25
540,24	47,10
540,30	75,77
540,36	110,59
540,42	-34,82
540,49	-75,77
540,55	-12,29
540,61	8,19
540,67	-18,43
540,73	-79,87
540,79	102,40
540,85	20,48
540,91	81,92
540,97	0,00
541,03	-16,38
541,09	-2,05
541,15	32,77
541,21	16,38
541,27	73,73
541,33	-20,48
541,39	-24,58
541,45	51,20
541,51	49,15
541,57	8,19
541,63	6,14
541,69	-16,38
541,75	-43,01
541,81	137,21
541,87	-77,82
541,93	-8,19
541,99	6,14
542,05	75,77
542,11	145,41
542,17	-43,01
542,23	-77,82
542,29	69,63
542,35	75,77
542,41	47,10
542,47	10,24
542,53	-116,73
542,59	122,88
542,65	-22,53
542,71	-18,43
542,77	-6,14
542,83	38,91
542,89	30,72
542,95	106,49
543,01	53,25
543,07	83,97
543,13	-18,43
543,19	28,67
543,25	-96,25
543,31	-92,16
543,37	-135,17
543,43	6,14
543,49	22,53
543,55	-2,05
543,61	28,67
543,67	71,68
543,73	67,58
543,79	-77,82
543,85	36,86
543,91	83,97
543,97	-6,14
544,03	45,06
544,09	126,97
544,15	-8,19
544,21	-28,67
544,27	-36,86
544,33	0,00
544,39	20,48
544,45	-59,39
544,51	79,87
544,57	-12,29
544,63	34,82
544,69	65,54
544,75	-4,10
544,81	-169,98
544,87	-116,73
544,93	-40,96
544,99	-55,30
545,05	-22,53
545,11	174,08
545,17	6,14
545,23	-24,58
545,29	-98,30
545,35	-16,38
545,41	14,34
545,47	57,34
545,53	-12,29
545,59	-12,29
545,65	6,14
545,71	0,00
545,77	135,17
545,83	-20,48
545,89	141,31
545,95	-180,22
546,01	14,34
546,07	8,19
546,13	20,48
546,19	108,54
546,25	-45,06
546,31	-16,38
546,37	-18,43
546,42	-106,49
546,48	-8,19
546,54	-98,30
546,60	10,24
546,66	-26,62
546,72	49,15
546,78	-122,88
546,84	12,29
546,90	-20,48
546,96	-24,58
547,02	40,96
547,08	-8,19
547,14	67,58
547,20	4,10
547,26	-20,48
547,32	-98,30
547,38	-73,73
547,44	8,19
547,50	-47,10
547,56	75,77
547,62	-55,30
547,67	-2,05
547,73	55,30
547,79	-77,82
547,85	55,30
547,91	-14,34
547,97	-26,62
548,03	-137,21
548,09	-65,53
548,15	59,39
548,21	-12,29
548,27	-14,34
548,33	-18,43
548,39	-61,44
548,45	73,73
548,51	65,54
548,56	-100,35
548,62	-6,14
548,68	-6,14
548,74	57,34
548,80	8,19
548,86	-12,29
548,92	40,96
548,98	18,43
549,04	-67,58
549,10	-45,06
549,16	4,10
549,22	40,96
549,28	59,39
549,34	53,25
549,39	30,72
549,45	-61,44
549,51	40,96
549,57	22,53
549,63	-22,53
549,69	-43,01
549,75	-20,48
549,81	0,00
549,87	-26,62
549,93	0,00
549,99	-116,73
550,04	-65,54
550,10	61,44
550,16	141,31
550,22	6,14
550,28	124,93
550,34	43,01
550,40	26,62
550,46	-26,62
550,52	38,91
550,58	-2,05
550,64	0,00
550,69	-36,86
550,75	2,05
550,81	-22,53
550,87	-34,82
550,93	20,48
550,99	22,53
551,05	75,77
551,11	10,24
551,17	38,91
551,23	71,68
551,28	-49,15
551,34	-88,06
551,40	12,29
551,46	69,63
551,52	-139,26
551,58	26,62
551,64	43,01
551,70	57,34
551,76	20,48
551,81	90,11
551,87	45,06
551,93	59,39
551,99	90,11
552,05	-16,38
552,11	-32,77
552,17	-43,01
552,23	-96,25
552,28	8,19
552,34	75,77
552,40	-83,97
552,46	51,20
552,52	75,77
552,58	16,38
552,64	-24,58
552,70	-22,53
552,75	32,77
552,81	45,06
552,87	-6,14
552,93	71,68
552,99	8,19
553,05	-55,30
553,11	40,96
553,17	-51,20
553,22	-71,68
553,28	-6,14
553,34	-98,30
553,40	-94,21
553,46	-53,25
553,52	14,34
553,58	65,54
553,63	-94,21
553,69	49,15
553,75	-18,43
553,81	-59,39
553,87	-4,10
553,93	-8,19
553,99	4,10
554,04	-36,86
554,10	73,73
554,16	-55,30
554,22	47,10
554,28	36,86
554,34	-63,49
554,40	28,67
554,45	4,10
554,51	-43,01
554,57	-14,34
554,63	34,82
554,69	30,72
554,75	-10,24
554,80	-14,34
554,86	75,77
554,92	90,11
554,98	4,10
555,04	2,05
555,10	-40,96
555,16	49,15
555,21	-24,58
555,27	-88,06
555,33	-47,10
555,39	-83,97
555,45	-45,06
555,51	-38,91
555,56	69,63
555,62	-6,14
555,68	-77,82
555,74	-36,86
555,80	63,49
555,86	24,58
555,91	32,77
555,97	-8,19
556,03	112,64
556,09	-143,36
556,15	79,87
556,20	-40,96
556,26	118,78
556,32	28,67
556,38	-6,14
556,44	14,34
556,50	2,05
556,55	-47,10
556,61	14,34
556,67	-104,45
556,73	45,06
556,79	6,14
556,84	22,53
556,90	-10,24
556,96	-2,05
557,02	92,16
557,08	-20,48
557,14	18,43
557,19	-43,01
557,25	20,48
557,31	-79,87
557,37	16,38
557,43	-71,68
557,48	-108,54
557,54	12,29
557,60	14,34
557,66	81,92
557,72	-100,35
557,77	-2,05
557,83	38,91
557,89	36,86
557,95	90,11
558,01	81,92
558,06	63,49
558,12	55,30
558,18	59,39
558,24	90,11
558,30	-34,82
558,35	16,38
558,41	18,43
558,47	30,72
558,53	-32,77
558,59	-49,15
558,64	28,67
558,70	-10,24
558,76	-114,69
558,82	55,30
558,88	-28,67
558,93	-65,53
558,99	-43,01
559,05	40,96
559,11	-24,58
559,16	86,01
559,22	81,92
559,28	147,45
559,34	-63,49
559,40	6,14
559,45	-20,48
559,51	-22,53
559,57	-51,20
559,63	-20,48
559,68	10,24
559,74	53,25
559,80	40,96
559,86	-12,29
559,92	65,54
559,97	16,38
560,03	4,10
560,09	94,21
560,15	73,73
560,20	26,62
560,26	18,43
560,32	55,30
560,38	-18,43
560,43	81,92
560,49	-51,20
560,55	-20,48
560,61	57,34
560,66	-71,68
560,72	-47,10
560,78	-73,73
560,84	47,10
560,90	45,06
560,95	59,39
561,01	65,54
561,07	-18,43
561,13	100,35
561,18	-100,35
561,24	-106,49
561,30	4,10
561,36	59,39
561,41	51,20
561,47	-57,34
561,53	16,38
561,59	-26,62
561,64	-16,38
561,70	4,10
561,76	4,10
561,82	-90,11
561,87	24,58
561,93	-61,44
561,99	75,77
562,05	75,77
562,10	-10,24
562,16	45,06
562,22	57,34
562,27	-36,86
562,33	0,00
562,39	14,34
562,45	36,86
562,50	-26,62
562,56	-81,92
562,62	88,06
562,68	18,43
562,73	92,16
562,79	-79,87
562,85	104,45
562,91	-94,21
562,96	161,79
563,02	18,43
563,08	18,43
563,13	18,43
563,19	-14,34
563,25	40,96
563,31	-49,15
563,36	-61,44
563,42	-4,10
563,48	-8,19
563,53	-43,01
563,59	-63,49
563,65	-6,14
563,71	83,97
563,76	104,45
563,82	83,97
563,88	12,29
563,94	45,06
563,99	77,82
564,05	12,29
564,11	71,68
564,16	59,39
564,22	-43,01
564,28	10,24
564,33	-77,82
564,39	-26,62
564,45	51,20
564,51	104,45
564,56	2,05
564,62	92,16
564,68	32,77
564,73	-8,19
564,79	104,45
564,85	-40,96
564,91	53,25
564,96	-61,44
565,02	92,16
565,08	-45,06
565,13	22,53
565,19	96,25
565,25	22,53
565,30	-69,63
565,36	40,96
565,42	47,10
565,47	-2,05
565,53	-14,34
565,59	-10,24
565,65	-24,58
565,70	6,14
565,76	-69,63
565,82	-20,48
565,87	-22,53
565,93	-45,06
565,99	49,15
566,04	53,25
566,10	18,43
566,16	-18,43
566,21	145,41
566,27	-34,82
566,33	55,30
566,38	88,06
566,44	-88,06
566,50	34,82
566,55	59,39
566,61	-53,25
566,67	-32,77
566,73	22,53
566,78	34,82
566,84	67,58
566,90	43,01
566,95	110,59
567,01	-67,58
567,07	-16,38
567,12	45,06
567,18	-47,10
567,24	36,86
567,29	-75,77
567,35	-83,97
567,41	-16,38
567,46	86,01
567,52	22,53
567,58	-14,34
567,63	-14,34
567,69	18,43
567,75	-79,87
567,80	51,20
567,86	-2,05
567,91	-118,78
567,97	-32,77
568,03	6,14
568,08	124,93
568,14	-12,29
568,20	24,58
568,25	-4,10
568,31	69,63
568,37	14,34
568,42	26,62
568,48	63,49
568,54	165,89
568,59	-6,14
568,65	73,73
568,71	22,53
568,76	34,82
568,82	73,73
568,88	-32,77
568,93	30,72
568,99	-20,48
569,04	-10,24
569,10	-47,10
569,16	43,01
569,21	-77,82
569,27	86,01
569,33	45,06
569,38	-47,10
569,44	14,34
569,50	36,86
569,55	18,43
569,61	-55,30
569,66	24,58
569,72	114,69
569,78	77,82
569,83	32,77
569,89	22,53
569,95	12,29
570,00	83,97
570,06	73,73
570,11	-55,30
570,17	57,34
570,23	-131,07
570,28	-32,77
570,34	-51,20
570,40	-4,10
570,45	8,19
570,51	-4,10
570,56	51,20
570,62	-79,87
570,68	55,30
570,73	-14,34
570,79	22,53
570,85	-94,21
570,90	-2,05
570,96	-4,10
571,01	18,43
571,07	-163,84
571,13	53,25
571,18	6,14
571,24	112,64
571,29	28,67
571,35	102,40
571,41	-8,19
571,46	32,77
571,52	-53,25
571,57	-92,16
571,63	-63,49
571,69	8,19
571,74	-67,58
571,80	-22,53
571,85	16,38
571,91	-14,34
571,97	-26,62
572,02	-16,38
572,08	94,21
572,13	73,73
572,19	-30,72
572,25	71,68
572,30	-22,53
572,36	-10,24
572,41	126,97
572,47	18,43
572,53	47,10
572,58	-73,73
572,64	65,53
572,69	120,83
572,75	4,10
572,80	28,67
572,86	-4,10
572,92	-14,34
572,97	38,91
573,03	98,30
573,08	-18,43
573,14	22,53
573,20	26,62
573,25	4,10
573,31	-22,53
573,36	96,25
573,42	67,58
573,47	57,34
573,53	77,82
573,59	-40,96
573,64	73,73
573,70	73,73
573,75	-24,58
573,81	81,92
573,86	71,68
573,92	6,14
573,98	-38,91
574,03	65,54
574,09	141,31
574,14	57,34
574,20	-16,38
574,25	22,53
574,31	10,24
574,37	-40,96
574,42	-67,58
574,48	88,06
574,53	28,67
574,59	-2,05
574,64	-20,48
574,70	88,06
574,75	59,39
574,81	-22,53
574,87	102,40
574,92	-2,05
574,98	22,53
575,03	-2,05
575,09	26,62
575,14	-16,38
575,20	135,17
575,25	40,96
575,31	-55,30
575,37	45,06
575,42	22,53
575,48	-16,38
575,53	51,20
575,59	98,30
575,64	-26,62
575,70	20,48
575,75	-8,19
575,81	69,63
575,86	22,53
575,92	2,05
575,98	59,39
576,03	-83,97
576,09	65,54
576,14	20,48
576,20	14,34
576,25	22,53
576,31	-61,44
576,36	32,77
576,42	16,38
576,47	112,64
576,53	-12,29
576,58	2,05
576,64	12,29
576,69	40,96
576,75	69,63
576,81	65,53
576,86	8,19
576,92	28,67
576,97	-47,10
577,03	-65,54
577,08	22,53
577,14	14,34
577,19	79,87
577,25	94,21
577,30	-2,05
577,36	53,25
577,41	-10,24
577,47	43,01
577,52	73,73
577,58	-40,96
577,63	51,20
577,69	49,15
577,74	-61,44
577,80	32,77
577,85	69,63
577,91	-24,58
577,96	-94,21
578,02	55,30
578,07	-65,54
578,13	55,30
578,18	12,29
578,24	16,38
578,29	90,11
578,35	-92,16
578,40	71,68
578,46	-4,10
578,51	-26,62
578,57	-4,10
578,62	65,54
578,68	-32,77
578,73	92,16
578,79	16,38
578,84	45,06
578,90	0,00
578,95	-98,30
579,01	-28,67
579,06	100,35
579,12	10,24
579,17	-10,24
579,23	129,02
579,28	16,38
579,34	4,10
579,39	61,44
579,45	126,97
579,50	-22,53
579,56	10,24
579,61	61,44
579,67	-10,24
579,72	-69,63
579,78	-2,05
579,83	-65,54
579,89	67,58
579,94	-43,01
580,00	-8,19
580,05	16,38
580,11	-34,82
580,16	122,88
580,22	-71,68
580,27	-34,82
580,32	18,43
580,38	38,91
580,43	47,10
580,49	-36,86
580,54	26,62
580,60	-100,35
580,65	-43,01
580,71	59,39
580,76	36,86
580,82	32,77
580,87	-81,92
580,93	14,34
580,98	2,05
581,04	6,14
581,09	51,20
581,14	71,68
581,20	69,63
581,25	12,29
581,31	38,91
581,36	-81,92
581,42	-34,82
581,47	106,49
581,53	18,43
581,58	-43,01
581,64	69,63
581,69	16,38
581,75	45,06
581,80	-34,82
581,85	96,25
581,91	65,53
581,96	30,72
582,02	-90,11
582,07	8,19
582,13	12,29
582,18	43,01
582,24	14,34
582,29	14,34
582,34	-83,97
582,40	57,34
582,45	53,25
582,51	59,39
582,56	16,38
582,62	-40,96
582,67	20,48
582,73	126,97
582,78	20,48
582,83	221,18
582,89	24,58
582,94	-38,91
583,00	-6,14
583,05	-12,29
583,11	18,43
583,16	32,77
583,21	34,82
583,27	-14,34
583,32	-43,01
583,38	-2,05
583,43	4,10
583,49	38,91
583,54	0,00
583,59	-55,30
583,65	67,58
583,70	36,86
583,76	-28,67
583,81	114,69
583,87	45,06
583,92	106,49
583,97	43,01
584,03	32,77
584,08	129,02
584,14	81,92
584,19	-14,34
584,24	83,97
584,30	-38,91
584,35	26,62
584,41	24,58
584,46	-10,24
584,52	12,29
584,57	-65,54
584,62	63,49
584,68	-90,11
584,73	2,05
584,79	-18,43
584,84	4,10
584,89	143,36
584,95	-28,67
585,00	28,67
585,06	106,49
585,11	102,40
585,16	-88,06
585,22	-59,39
585,27	4,10
585,33	-49,15
585,38	-38,91
585,43	-24,58
585,49	81,92
585,54	-14,34
585,60	-6,14
585,65	53,25
585,70	-10,24
585,76	135,17
585,81	-18,43
585,87	59,39
585,92	0,00
585,97	92,16
586,03	14,34
586,08	79,87
586,13	-98,30
586,19	96,25
586,24	40,96
586,30	59,39
586,35	73,73
586,40	22,53
586,46	112,64
586,51	43,01
586,57	-16,38
586,62	-2,05
586,67	75,77
586,73	-32,77
586,78	-8,19
586,83	86,01
586,89	73,73
586,94	63,49
587,00	16,38
587,05	45,06
587,10	116,73
587,16	96,25
587,21	94,21
587,26	155,65
587,32	417,79
587,37	1697,77
587,42	5353,39
587,48	11126,61
587,53	18341,61
587,59	22167,21
587,64	29857,34
587,69	34127,35
587,75	29169,22
587,80	26510,96
587,85	29627,96
587,91	29228,61
587,96	18011,89
588,01	10256,23
588,07	6227,87
588,12	4982,71
588,17	3807,17
588,23	2527,19
588,28	1583,08
588,34	1093,62
588,39	483,32
588,44	534,52
588,50	280,57
588,55	294,91
588,60	112,64
588,66	307,20
588,71	118,78
588,76	75,77
588,82	51,20
588,87	61,44
588,92	43,01
588,98	65,54
589,03	45,06
589,08	77,82
589,14	40,96
589,19	49,15
589,24	-49,15
589,30	20,48
589,35	-67,58
589,40	65,54
589,46	10,24
589,51	-12,29
589,56	-26,62
589,62	114,69
589,67	-8,19
589,72	-40,96
589,78	34,82
589,83	53,25
589,88	-2,05
589,94	71,68
589,99	10,24
590,04	-10,24
590,10	-24,58
590,15	-57,34
590,20	32,77
590,26	32,77
590,31	-12,29
590,36	55,30
590,42	-38,91
590,47	20,48
590,52	-14,34
590,58	12,29
590,63	-75,77
590,68	49,15
590,74	-49,15
590,79	75,77
590,84	-47,10
590,89	88,06
590,95	-49,15
591,00	-30,72
591,05	49,15
591,11	-16,38
591,16	-22,53
591,21	45,06
591,27	-8,19
591,32	57,34
591,37	6,14
591,43	141,31
591,48	-36,86
591,53	2,05
591,58	-178,17
591,64	81,92
591,69	57,34
591,74	-8,19
591,80	24,58
591,85	30,72
591,90	-24,58
591,96	61,44
592,01	-10,24
592,06	-32,77
592,11	30,72
592,17	-4,10
592,22	100,35
592,27	4,10
592,33	-14,34
592,38	34,82
592,43	38,91
592,48	-36,86
592,54	8,19
592,59	4,10
592,64	-2,05
592,70	-14,34
592,75	22,53
592,80	24,58
592,85	22,53
592,91	-45,06
592,96	24,58
593,01	40,96
593,07	-6,14
593,12	-24,58
593,17	100,35
593,22	28,67
593,28	-2,05
593,33	-30,72
593,38	-26,62
593,44	104,45
593,49	-45,06
593,54	38,91
593,59	-2,05
593,65	-2,05
593,70	32,77
593,75	94,21
593,80	-8,19
593,86	-12,29
593,91	51,20
593,96	-24,58
594,01	98,30
594,07	-71,68
594,12	43,01
594,17	20,48
594,23	26,62
594,28	-38,91
594,33	-4,10
594,38	-8,19
594,44	-57,34
594,49	8,19
594,54	-104,45
594,59	98,30
594,65	20,48
594,70	-32,77
594,75	-14,34
594,80	75,77
594,86	118,78
594,91	0,00
594,96	49,15
595,01	-2,05
595,07	57,34
595,12	-34,82
595,17	-92,16
595,22	-14,34
595,28	-45,06
595,33	-112,64
595,38	-49,15
595,43	43,01
595,49	-32,77
595,54	-24,58
595,59	59,39
595,64	-6,14
595,69	61,44
595,75	30,72
595,80	49,15
595,85	-94,21
595,90	-43,01
595,96	38,91
596,01	18,43
596,06	114,69
596,11	-18,43
596,17	49,15
596,22	-12,29
596,27	6,14
596,32	55,30
596,38	55,30
596,43	38,91
596,48	45,06
596,53	79,87
596,58	71,68
596,64	40,96
596,69	102,40
596,74	43,01
596,79	79,87
596,85	-47,10
596,90	67,58
596,95	63,49
597,00	-38,91
597,05	24,58
597,11	75,77
597,16	75,77
597,21	81,92
597,26	-65,54
597,31	90,11
597,37	-2,05
597,42	-8,19
597,47	-98,30
597,52	-2,05
597,57	75,77
597,63	-34,82
597,68	18,43
597,73	-18,43
597,78	79,87
597,84	38,91
597,89	-55,30
597,94	36,86
597,99	45,06
598,04	24,58
598,10	114,69
598,15	43,01
598,20	36,86
598,25	-10,24
598,30	-94,21
598,36	-81,92
598,41	-77,82
598,46	-53,25
598,51	51,20
598,56	28,67
598,61	-8,19
598,67	16,38
598,72	-110,59
598,77	-22,53
598,82	61,44
598,87	79,87
598,93	57,34
598,98	51,20
599,03	116,73
599,08	-30,72
599,13	-90,11
599,19	83,97
599,24	-12,29
599,29	-51,20
599,34	-34,82
599,39	6,14
599,44	-10,24
599,50	77,82
599,55	-6,14
599,60	0,00
599,65	-49,15
599,70	106,49
599,75	-12,29
599,81	100,35
599,86	4,10
599,91	116,73
599,96	10,24
600,01	188,41
600,07	71,68
600,12	-96,25
600,17	49,15
600,22	-45,06
600,27	-108,54
600,32	30,72
600,38	71,68
600,43	16,38
600,48	32,77
600,53	-24,58
600,58	49,15
600,63	20,48
600,68	-22,53
600,74	81,92
600,79	-71,68
600,84	-47,10
600,89	4,10
600,94	-20,48
600,99	-4,10
601,05	-4,10
601,10	-10,24
601,15	-8,19
601,20	2,05
601,25	-12,29
601,30	-59,39
601,35	-28,67
601,41	-20,48
601,46	110,59
601,51	0,00
601,56	10,24
601,61	20,48
601,66	28,67
601,71	73,73
601,77	40,96
601,82	49,15
601,87	-55,30
601,92	53,25
601,97	-38,91
602,02	-28,67
602,07	-65,54
602,13	0,00
602,18	-104,45
602,23	4,10
602,28	14,34
602,33	81,92
602,38	-8,19
602,43	65,53
602,48	-32,77
602,54	-45,06
602,59	-12,29
602,64	49,15
602,69	83,97
602,74	36,86
602,79	-20,48
602,84	49,15
602,89	-102,40
602,95	65,54
603,00	10,24
603,05	63,49
603,10	40,96
603,15	59,39
603,20	16,38
603,25	67,58
603,30	12,29
603,36	20,48
603,41	20,48
603,46	86,01
603,51	77,82
603,56	24,58
603,61	-69,63
603,66	-77,82
603,71	-14,34
603,76	-88,06
603,82	-57,34
603,87	-81,92
603,92	133,12
603,97	20,48
604,02	-55,30
604,07	-40,96
604,12	135,17
604,17	-47,10
604,22	-65,54
604,28	24,58
604,33	20,48
604,38	-24,58
604,43	-51,20
604,48	100,35
604,53	-49,15
604,58	-94,21
604,63	-16,38
604,68	-12,29
604,73	-32,77
604,78	-94,21
604,84	-53,25
604,89	-8,19
604,94	30,72
604,99	-26,62
605,04	-20,48
605,09	2,05
605,14	116,73
605,19	-30,72
605,24	43,01
605,29	-10,24
605,34	14,34
605,40	59,39
605,45	-24,58
605,50	49,15
605,55	100,35
605,60	22,53
605,65	45,06
605,70	30,72
605,75	16,38
605,80	86,01
605,85	-22,53
605,90	-96,25
605,95	-24,58
606,00	-34,82
606,06	-30,72
606,11	2,05
606,16	-28,67
606,21	43,01
606,26	-30,72
606,31	30,72
606,36	-88,06
606,41	120,83
606,46	65,54
606,51	18,43
606,56	47,10
606,61	32,77
606,66	-77,82
606,71	61,44
606,76	131,07
606,81	18,43
606,87	36,86
606,92	73,73
606,97	-4,10
607,02	-57,34
607,07	-59,39
607,12	-6,14
607,17	129,02
607,22	38,91
607,27	-75,77
607,32	57,34
607,37	8,19
607,42	36,86
607,47	-32,77
607,52	24,58
607,57	-18,43
607,62	98,30
607,67	-8,19
607,72	6,14
607,77	55,30
607,83	75,77
607,88	49,15
607,93	45,06
607,98	10,24
608,03	-143,36
608,08	53,25
608,13	110,59
608,18	0,00
608,23	-92,16
608,28	-38,91
608,33	30,72
608,38	63,49
608,43	-798,71
608,48	-38,91
608,53	-14,34
608,58	-40,96
608,63	-55,30
608,68	-20,48
608,73	73,73
608,78	98,30
608,83	-6,14
608,88	135,17
608,93	8,19
608,98	-6,14
609,03	-2,05
609,08	-26,62
609,13	20,48
609,18	-10,24
609,23	-69,63
609,28	-34,82
609,33	75,77
609,38	30,72
609,43	-22,53
609,48	-81,92
609,53	129,02
609,58	14,34
609,63	69,63
609,69	-51,20
609,74	59,39
609,79	26,62
609,84	38,91
609,89	22,53
609,94	-47,10
609,99	94,21
610,04	-51,20
610,09	83,97
610,14	-92,16
610,19	34,82
610,24	24,58
610,29	47,10
610,34	-12,29
610,39	34,82
610,44	30,72
610,49	63,49
610,54	12,29
610,59	-69,63
610,64	67,58
610,69	38,91
610,74	108,54
610,79	-26,62
610,84	-32,77
610,89	63,49
610,94	-14,34
610,99	83,97
611,04	83,97
611,09	73,73
611,14	-12,29
611,18	-20,48
611,23	-67,58
611,28	-112,64
611,33	22,53
611,38	-32,77
611,43	94,21
611,48	-28,67
611,53	-47,10
611,58	38,91
611,63	61,44
611,68	-8,19
611,73	-79,87
611,78	90,11
611,83	16,38
611,88	-28,67
611,93	49,15
611,98	-14,34
612,03	-6,14
612,08	65,53
612,13	104,45
612,18	-112,64
612,23	49,15
612,28	63,49
612,33	51,20
612,38	28,67
612,43	-51,20
612,48	-22,53
612,53	34,82
612,58	12,29
612,63	-65,53
612,68	-6,14
612,73	53,25
612,78	-8,19
612,83	2,05
612,88	73,73
612,93	26,62
612,97	157,69
613,02	10,24
613,07	38,91
613,12	18,43
613,17	-36,86
613,22	79,87
613,27	-79,87
613,32	30,72
613,37	-122,88
613,42	18,43
613,47	149,50
613,52	18,43
613,57	83,97
613,62	-79,87
613,67	-65,53
613,72	53,25
613,77	43,01
613,82	65,53
613,87	75,77
613,92	-10,24
613,96	-34,82
614,01	174,08
614,06	-40,96
614,11	20,48
614,16	100,35
614,21	-8,19
614,26	-36,86
614,31	10,24
614,36	81,92
614,41	65,54
614,46	8,19
614,51	77,82
614,56	129,02
614,61	-14,34
614,66	-63,49
614,70	135,17
614,75	45,06
614,80	-12,29
614,85	-18,43
614,90	18,43
614,95	-4,10
615,00	118,78
615,05	65,53
615,10	-2,05
615,15	55,30
615,20	14,34
615,25	24,58
615,30	90,11
615,34	-16,38
615,39	88,06
615,44	2,05
615,49	137,21
615,54	67,58
615,59	-8,19
615,64	67,58
615,69	0,00
615,74	-14,34
615,79	-75,77
615,84	-61,44
615,89	-8,19
615,93	73,73
615,98	-55,30
616,03	-67,58
616,08	28,67
616,13	67,58
616,18	73,73
616,23	26,62
616,28	53,25
616,33	40,96
616,38	-53,25
616,42	67,58
616,47	51,20
616,52	71,68
616,57	28,67
616,62	65,54
616,67	71,68
616,72	-4,10
616,77	116,73
616,82	65,54
616,87	22,53
616,91	32,77
616,96	36,86
617,01	98,30
617,06	36,86
617,11	14,34
617,16	67,58
617,21	90,11
617,26	71,68
617,31	26,62
617,35	92,16
617,40	104,45
617,45	49,15
617,50	-43,01
617,55	71,68
617,60	0,00
617,65	12,29
617,70	-10,24
617,74	-2,05
617,79	161,79
617,84	45,06
617,89	30,72
617,94	-12,29
617,99	90,11
618,04	122,88
618,09	-126,97
618,13	-14,34
618,18	22,53
618,23	-38,91
618,28	14,34
618,33	-73,73
618,38	20,48
618,43	86,01
618,48	18,43
618,52	4,10
618,57	-10,24
618,62	30,72
618,67	10,24
618,72	-14,34
618,77	-100,35
618,82	-40,96
618,86	86,01
618,91	90,11
618,96	-6,14
619,01	-8,19
619,06	2,05
619,11	0,00
619,16	8,19
619,20	108,54
619,25	-14,34
619,30	32,77
619,35	34,82
619,40	-32,77
619,45	-67,58
619,49	75,77
619,54	-47,10
619,59	55,30
619,64	-88,06
619,69	-65,54
619,74	26,62
619,79	40,96
619,83	49,15
619,88	-57,34
619,93	53,25
619,98	81,92
620,03	18,43
620,08	71,68
620,12	-6,14
620,17	38,91
620,22	-12,29
620,27	-18,43
620,32	67,58
620,37	0,00
620,41	53,25
620,46	-20,48
620,51	-16,38
620,56	-26,62
620,61	36,86
620,66	-67,58
620,70	14,34
620,75	-24,58
620,80	-8,19
620,85	-118,78
620,90	49,15
620,95	36,86
620,99	16,38
621,04	116,73
621,09	92,16
621,14	-38,91
621,19	49,15
621,23	30,72
621,28	-38,91
621,33	124,93
621,38	163,84
621,43	-36,86
621,48	73,73
621,52	94,21
621,57	120,83
621,62	-63,49
621,67	-2,05
621,72	-59,39
621,76	43,01
621,81	81,92
621,86	38,91
621,91	81,92
621,96	12,29
622,00	-36,86
622,05	53,25
622,10	-88,06
622,15	-81,92
622,20	59,39
622,24	75,77
622,29	-24,58
622,34	53,25
622,39	-4,10
622,44	14,34
622,48	67,58
622,53	-22,53
622,58	38,91
622,63	20,48
622,68	-24,58
622,72	-49,15
622,77	30,72
622,82	28,67
622,87	69,63
622,92	-14,34
622,96	8,19
623,01	-137,21
623,06	-77,82
623,11	-34,82
623,15	14,34
623,20	-12,29
623,25	43,01
623,30	59,39
623,35	38,91
623,39	6,14
623,44	43,01
623,49	69,63
623,54	38,91
623,58	-49,15
623,63	12,29
623,68	51,20
623,73	59,39
623,78	-90,11
623,82	-135,17
623,87	-45,06
623,92	112,64
623,97	34,82
624,01	-79,87
624,06	38,91
624,11	-18,43
624,16	61,44
624,21	-90,11
624,25	-30,72
624,30	18,43
624,35	2,05
624,40	-51,20
624,44	-30,72
624,49	-30,72
624,54	43,01
624,59	-34,82
624,63	90,11
624,68	-45,06
624,73	71,68
624,78	16,38
624,82	100,35
624,87	34,82
624,92	-34,82
624,97	69,63
625,01	77,82
625,06	18,43
625,11	-8,19
625,16	88,06
625,20	-53,25
625,25	143,36
625,30	-77,82
625,35	-51,20
625,39	-57,34
625,44	59,39
625,49	-28,67
625,54	149,50
625,58	-4,10
625,63	73,73
625,68	47,10
625,73	55,30
625,77	-6,14
625,82	-10,24
625,87	34,82
625,92	34,82
625,96	-77,82
626,01	49,15
626,06	43,01
626,10	10,24
626,15	6,14
626,20	51,20
626,25	38,91
626,29	30,72
626,34	55,30
626,39	-32,77
626,44	2,05
626,48	10,24
626,53	16,38
626,58	73,73
626,62	67,58
626,67	24,58
626,72	14,34
626,77	22,53
626,81	-8,19
626,86	12,29
626,91	67,58
626,96	-8,19
627,00	6,14
627,05	-86,01
627,10	-61,44
627,14	71,68
627,19	38,91
627,24	104,45
627,29	-86,01
627,33	51,20
627,38	28,67
627,43	67,58
627,47	10,24
627,52	-8,19
627,57	118,78
627,62	-38,91
627,66	-10,24
627,71	24,58
627,76	88,06
627,80	-34,82
627,85	57,34
627,90	40,96
627,94	-63,49
627,99	-90,11
628,04	116,73
628,09	-53,25
628,13	59,39
628,18	4,10
628,23	45,06
628,27	63,49
628,32	-73,73
628,37	-12,29
628,41	49,15
628,46	88,06
628,51	71,68
628,55	20,48
628,60	-47,10
628,65	57,34
628,70	40,96
628,74	-12,29
628,79	0,00
628,84	-73,73
628,88	38,91
628,93	53,25
628,98	-61,44
629,02	18,43
629,07	6,14
629,12	20,48
629,16	-16,38
629,21	65,54
629,26	-2,05
629,30	141,31
629,35	26,62
629,40	-53,25
629,44	-92,16
629,49	-20,48
629,54	18,43
629,58	16,38
629,63	18,43
629,68	53,25
629,72	-161,79
629,77	14,34
629,82	-30,72
629,86	-28,67
629,91	75,77
629,96	12,29
630,00	12,29
630,05	71,68
630,10	-145,41
630,14	0,00
630,19	-6,14
630,24	114,69
630,28	16,38
630,33	-6,14
630,38	-55,30
630,42	-43,01
630,47	-24,58
630,52	-16,38
630,56	26,62
630,61	8,19
630,66	-100,35
630,70	49,15
630,75	22,53
630,80	-34,82
630,84	67,58
630,89	129,02
630,94	-55,30
630,98	71,68
631,03	-61,44
631,07	96,25
631,12	-8,19
631,17	-98,30
631,21	30,72
631,26	18,43
631,31	-20,48
631,35	-57,34
631,40	-110,59
631,45	137,21
631,49	67,58
631,54	63,49
631,59	49,15
631,63	20,48
631,68	83,97
631,72	-73,73
631,77	14,34
631,82	4,10
631,86	24,58
631,91	47,10
631,96	34,82
632,00	73,73
632,05	49,15
632,09	36,86
632,14	-2,05
632,19	-40,96
632,23	6,14
632,28	145,41
632,33	-22,53
632,37	47,10
632,42	38,91
632,46	-57,34
632,51	-22,53
632,56	96,25
632,60	32,77
632,65	55,30
632,70	-38,91
632,74	22,53
632,79	-34,82
632,83	106,49
632,88	65,54
632,93	0,00
632,97	38,91
633,02	18,43
633,06	-122,88
633,11	77,82
633,16	-28,67
633,20	38,91
633,25	51,20
633,29	16,38
633,34	61,44
633,39	-40,96
633,43	32,77
633,48	4,10
633,52	-20,48
633,57	-6,14
633,62	-36,86
633,66	135,17
633,71	-16,38
633,75	22,53
633,80	53,25
633,85	-30,72
633,89	16,38
633,94	12,29
633,98	-36,86
634,03	90,11
634,08	100,35
634,12	-26,62
634,17	8,19
634,21	73,73
634,26	-81,92
634,31	16,38
634,35	30,72
634,40	71,68
634,44	-14,34
634,49	26,62
634,54	86,01
634,58	24,58
634,63	-112,64
634,67	-57,34
634,72	65,54
634,76	65,54
634,81	124,93
634,86	-16,38
634,90	2,05
634,95	-55,30
634,99	120,83
635,04	34,82
635,08	28,67
635,13	-4,10
635,18	28,67
635,22	-53,25
635,27	36,86
635,31	8,19
635,36	-16,38
635,40	-43,01
635,45	32,77
635,50	69,63
635,54	53,25
635,59	0,00
635,63	65,54
635,68	108,54
635,72	71,68
635,77	-4,10
635,81	180,22
635,86	-34,82
635,91	83,97
635,95	122,88
636,00	16,38
636,04	112,64
636,09	112,64
636,13	120,83
636,18	-36,86
636,22	49,15
636,27	71,68
636,32	114,69
636,36	-6,14
636,41	-30,72
636,45	77,82
636,50	-40,96
636,54	92,16
636,59	59,39
636,63	71,68
636,68	73,73
636,73	38,91
636,77	-8,19
636,82	30,72
636,86	55,30
636,91	100,35
636,95	139,26
637,00	51,20
637,04	73,73
637,09	53,25
637,13	88,06
637,18	0,00
637,22	32,77
637,27	102,40
637,31	4,10
637,36	94,21
637,41	79,87
637,45	120,83
637,50	-24,58
637,54	12,29
637,59	40,96
637,63	6,14
637,68	-51,20
637,72	-12,29
637,77	77,82
637,81	-38,91
637,86	174,08
637,90	90,11
637,95	43,01
637,99	108,54
638,04	-8,19
638,08	8,19
638,13	24,58
638,17	-69,63
638,22	24,58
638,26	-47,10
638,31	30,72
638,35	-71,68
638,40	-28,67
638,45	14,34
638,49	-36,86
638,54	-88,06
638,58	90,11
638,63	26,62
638,67	26,62
638,72	18,43
638,76	22,53
638,81	16,38
638,85	-88,06
638,90	81,92
638,94	-47,10
638,99	108,54
639,03	90,11
639,08	69,63
639,12	73,73
639,17	20,48
639,21	30,72
639,26	-2,05
639,30	92,16
639,35	-2,05
639,39	-6,14
639,44	24,58
639,48	65,54
639,53	43,01
639,57	61,44
639,62	22,53
639,66	-43,01
639,70	-20,48
639,75	14,34
639,79	145,41
639,84	-16,38
639,88	-182,27
639,93	20,48
639,97	8,19
640,02	-49,15
640,06	-16,38
640,11	59,39
640,15	12,29
640,20	65,53
640,24	-2,05
640,29	36,86
640,33	51,20
640,38	-26,62
640,42	-18,43
640,47	-12,29
640,51	59,39
640,56	43,01
640,60	65,54
640,65	61,44
640,69	-12,29
640,73	-49,15
640,78	-20,48
640,82	34,82
640,87	18,43
640,91	75,77
640,96	73,73
641,00	63,49
641,05	161,79
641,09	8,19
641,14	28,67
641,18	-55,30
641,23	88,06
641,27	49,15
641,32	2,05
641,36	49,15
641,40	32,77
641,45	61,44
641,49	10,24
641,54	-45,06
641,58	-49,15
641,63	34,82
641,67	-38,91
641,72	30,72
641,76	49,15
641,80	-49,15
641,85	75,77
641,89	-55,30
641,94	-40,96
641,98	38,91
642,03	81,92
642,07	-43,01
642,12	-43,01
642,16	-98,30
642,20	131,07
642,25	4,10
642,29	98,30
642,34	-55,30
642,38	36,86
642,43	26,62
642,47	65,54
642,52	-12,29
642,56	32,77
642,60	122,88
642,65	24,58
642,69	10,24
642,74	83,97
642,78	34,82
642,83	96,25
642,87	2,05
642,91	0,00
642,96	51,20
643,00	-61,44
643,05	-40,96
643,09	51,20
643,14	102,40
643,18	20,48
643,22	16,38
643,27	86,01
643,31	67,58
643,36	-69,63
643,40	28,67
643,45	129,02
643,49	75,77
643,53	36,86
643,58	-16,38
643,62	-61,44
643,67	81,92
643,71	-6,14
643,75	94,21
643,80	-32,77
643,84	38,91
643,89	-45,06
643,93	81,92
643,97	81,92
644,02	47,10
644,06	16,38
644,11	53,25
644,15	32,77
644,19	-16,38
644,24	6,14
644,28	-6,14
644,33	114,69
644,37	-22,53
644,42	-30,72
644,46	-63,49
644,50	36,86
644,55	71,68
644,59	-14,34
644,63	-67,58
644,68	61,44
644,72	-69,63
644,77	63,49
644,81	-2,05
644,85	-22,53
644,90	26,62
644,94	43,01
644,99	14,34
645,03	-4,10
645,07	-96,25
645,12	-47,10
645,16	59,39
645,21	163,84
645,25	36,86
645,29	71,68
645,34	88,06
645,38	-86,01
645,42	75,77
645,47	30,72
645,51	20,48
645,56	-47,10
645,60	40,96
645,64	-28,67
645,69	-32,77
645,73	81,92
645,77	98,30
645,82	63,49
645,86	75,77
645,91	-28,67
645,95	-38,91
645,99	57,34
646,04	108,54
646,08	71,68
646,12	-8,19
646,17	-69,63
646,21	-102,40
646,26	22,53
646,30	-47,10
646,34	-40,96
646,39	63,49
646,43	18,43
646,47	18,43
646,52	124,93
646,56	22,53
646,60	34,82
646,65	79,87
646,69	86,01
646,73	-102,40
646,78	104,45
646,82	-43,01
646,87	-77,82
646,91	-112,64
646,95	6,14
647,00	-30,72
647,04	-88,06
647,08	81,92
647,13	-4,10
647,17	22,53
647,21	8,19
647,26	-55,30
647,30	-61,44
647,34	34,82
647,39	71,68
647,43	28,67
647,47	83,97
647,52	12,29
647,56	-22,53
647,60	-24,58
647,65	-45,06
647,69	79,87
647,73	-102,40
647,78	53,25
647,82	24,58
647,86	98,30
647,91	-18,43
647,95	61,44
647,99	59,39
648,04	149,50
648,08	14,34
648,12	14,34
648,17	51,20
648,21	28,67
648,25	55,30
648,30	145,41
648,34	-6,14
648,38	-45,06
648,43	57,34
648,47	-6,14
648,51	-6,14
648,56	-8,19
648,60	-20,48
648,64	10,24
648,69	38,91
648,73	-118,78
648,77	108,54
648,82	96,25
648,86	-75,77
648,90	75,77
648,95	16,38
648,99	-4,10
649,03	20,48
649,07	47,10
649,12	90,11
649,16	98,30
649,20	-51,20
649,25	-18,43
649,29	55,30
649,33	-61,44
649,38	69,63
649,42	-126,97
649,46	86,01
649,51	-28,67
649,55	32,77
649,59	40,96
649,63	104,45
649,68	-12,29
649,72	-77,82
649,76	71,68
649,81	86,01
649,85	8,19
649,89	69,63
649,93	-65,53
649,98	10,24
650,02	-18,43
650,06	38,91
650,11	-40,96
650,15	69,63
650,19	36,86
650,24	59,39
650,28	-20,48
650,32	114,69
650,36	53,25
650,41	14,34
650,45	-49,15
650,49	-2,05
650,54	88,06
650,58	12,29
650,62	-43,01
650,66	-4,10
650,71	94,21
650,75	90,11
650,79	14,34
650,83	77,82
650,88	-86,01
650,92	43,01
650,96	8,19
651,01	126,97
651,05	-26,62
651,09	108,54
651,13	90,11
651,18	-4,10
651,22	55,30
651,26	65,54
651,30	40,96
651,35	61,44
651,39	8,19
651,43	-65,54
651,48	45,06
651,52	38,91
651,56	-81,92
651,60	24,58
651,65	77,82
651,69	53,25
651,73	57,34
651,77	-22,53
651,82	-43,01
651,86	98,30
651,90	147,45
651,94	-69,63
651,99	63,49
652,03	26,62
652,07	-26,62
652,11	57,34
652,16	-30,72
652,20	34,82
652,24	43,01
652,28	194,56
652,33	14,34
652,37	79,87
652,41	-8,19
652,45	26,62
652,50	28,67
652,54	112,64
652,58	-53,25
652,62	165,89
652,67	38,91
652,71	53,25
652,75	45,06
652,79	20,48
652,84	-16,38
652,88	0,00
652,92	18,43
652,96	53,25
653,00	24,58
653,05	26,62
653,09	2,05
653,13	-65,53
653,17	151,55
653,22	-24,58
653,26	-24,58
653,30	-79,87
653,34	-20,48
653,39	-30,72
653,43	59,39
653,47	10,24
653,51	43,01
653,55	-16,38
653,60	57,34
653,64	-40,96
653,68	22,53
653,72	-28,67
653,77	20,48
653,81	-57,34
653,85	-8,19
653,89	-88,06
653,93	-81,92
653,98	141,31
654,02	65,53
654,06	55,30
654,10	-8,19
654,14	-63,49
654,19	61,44
654,23	-16,38
654,27	-6,14
654,31	-6,14
654,35	49,15
654,40	-118,78
654,44	-18,43
654,48	92,16
654,52	2,05
654,57	-40,96
654,61	40,96
654,65	-24,58
654,69	2,05
654,73	-30,72
654,78	24,58
654,82	8,19
654,86	-147,45
654,90	-69,63
654,94	43,01
654,98	32,77
655,03	-153,60
655,07	-108,54
655,11	-79,87
655,15	184,32
655,19	20,48
655,24	98,30
655,28	108,54
655,32	-20,48
655,36	55,30
655,40	129,02
655,45	16,38
655,49	2,05
655,53	10,24
655,57	75,77
655,61	-4,10
655,65	36,86
655,70	83,97
655,74	88,06
655,78	92,16
655,82	-45,06
655,86	-59,39
655,91	18,43
655,95	-75,77
655,99	0,00
656,03	90,11
656,07	-20,48
656,11	22,53
656,16	98,30
656,20	-43,01
656,24	-20,48
656,28	30,72
656,32	-4,10
656,36	108,54
656,41	83,97
656,45	114,69
656,49	61,44
656,53	4,10
656,57	71,68
656,61	-22,53
656,66	-38,91
656,70	-22,53
656,74	-53,25
656,78	47,10
656,82	10,24
656,86	-22,53
656,91	77,82
656,95	71,68
656,99	-90,11
657,03	49,15
657,07	163,84
657,11	122,88
657,15	57,34
657,20	8,19
657,24	2,05
657,28	49,15
657,32	-55,30
657,36	59,39
657,40	96,25
657,44	-124,93
657,49	-57,34
657,53	-2,05
657,57	96,25
657,61	32,77
657,65	24,58
657,69	100,35
657,73	43,01
657,78	63,49
657,82	8,19
657,86	18,43
657,90	22,53
657,94	-12,29
657,98	30,72
658,02	-12,29
658,07	79,87
658,11	22,53
658,15	-16,38
658,19	-59,39
658,23	-69,63
658,27	14,34
658,31	-30,72
658,35	-43,01
658,40	-98,30
658,44	2,05
658,48	32,77
658,52	-98,30
658,56	28,67
658,60	2,05
658,64	75,77
658,68	47,10
658,73	24,58
658,77	0,00
658,81	88,06
658,85	-4,10
658,89	-30,72
658,93	149,50
658,97	161,79
659,01	16,38
659,06	172,03
659,10	-40,96
659,14	-67,58
659,18	120,83
659,22	-2,05
659,26	-32,77
659,30	90,11
659,34	122,88
659,38	57,34
659,42	40,96
659,47	-28,67
659,51	14,34
659,55	106,49
659,59	4,10
659,63	-32,77
659,67	-2,05
659,71	16,38
659,75	67,58
659,79	86,01
659,83	24,58
659,88	6,14
659,92	65,54
659,96	-49,15
660,00	131,07
660,04	102,40
660,08	-24,58
660,12	2,05
660,16	-40,96
660,20	63,49
660,24	53,25
660,28	63,49
660,33	20,48
660,37	47,10
660,41	49,15
660,45	120,83
660,49	-20,48
660,53	16,38
660,57	81,92
660,61	-32,77
660,65	65,54
660,69	20,48
660,73	141,31
660,77	-79,87
660,82	-10,24
660,86	-6,14
660,90	-45,06
660,94	139,26
660,98	30,72
661,02	57,34
661,06	-65,54
661,10	47,10
661,14	-10,24
661,18	-67,58
661,22	32,77
661,26	159,74
661,30	8,19
661,34	34,82
661,39	24,58
661,43	-38,91
661,47	-2,05
661,51	18,43
661,55	26,62
661,59	-8,19
661,63	-6,14
661,67	106,49
661,71	90,11
661,75	22,53
661,79	-2,05
661,83	-49,15
661,87	94,21
661,91	-73,73
661,95	32,77
661,99	-6,14
662,03	63,49
662,08	-6,14
662,12	57,34
662,16	129,02
662,20	-55,30
662,24	161,79
662,28	92,16
662,32	18,43
662,36	-116,73
662,40	90,11
662,44	-4,10
662,48	116,73
662,52	-45,06
662,56	-122,88
662,60	-55,30
662,64	81,92
662,68	-6,14
662,72	73,73
662,76	-53,25
662,80	-77,82
662,84	28,67
662,88	-49,15
662,92	-4,10
662,96	30,72
663,00	-40,96
663,04	57,34
663,09	6,14
663,13	32,77
663,17	112,64
663,21	-6,14
663,25	-18,43
663,29	-38,91
663,33	-12,29
663,37	34,82
663,41	57,34
663,45	143,36
663,49	-12,29
663,53	-14,34
663,57	-38,91
663,61	-8,19
663,65	-186,37
663,69	-16,38
663,73	143,36
663,77	6,14
663,81	92,16
663,85	36,86
663,89	124,93
663,93	73,73
663,97	63,49
664,01	94,21
664,05	-22,53
664,09	8,19
664,13	147,45
664,17	32,77
664,21	43,01
664,25	6,14
664,29	-22,53
664,33	34,82
664,37	98,30
664,41	43,01
664,45	98,30
664,49	149,50
664,53	77,82
664,57	0,00
664,61	-65,54
664,65	79,87
664,69	-24,58
664,73	126,97
664,77	106,49
664,81	24,58
664,85	63,49
664,89	-20,48
664,93	8,19
664,97	71,68
665,01	157,69
665,05	131,07
665,09	32,77
665,13	-10,24
665,17	-34,82
665,21	57,34
665,25	-2,05
665,29	43,01
665,33	77,82
665,37	-24,58
665,41	118,78
665,45	79,87
665,49	69,63
665,53	47,10
665,57	-43,01
665,61	86,01
665,65	8,19
665,69	-18,43
665,73	24,58
665,77	-28,67
665,81	-14,34
665,85	51,20
665,89	131,07
665,92	2,05
665,96	43,01
666,00	6,14
666,04	-34,82
666,08	-43,01
666,12	-38,91
666,16	22,53
666,20	30,72
666,24	112,64
666,28	92,16
666,32	-20,48
666,36	43,01
666,40	-10,24
666,44	143,36
666,48	14,34
666,52	79,87
666,56	24,58
666,60	67,58
666,64	22,53
666,68	-137,21
666,72	114,69
666,76	57,34
666,80	-55,30
666,84	34,82
666,88	77,82
666,91	55,30
666,95	2,05
666,99	36,86
667,03	-92,16
667,07	-86,01
667,11	94,21
667,15	163,84
667,19	106,49
667,23	61,44
667,27	-90,11
667,31	-12,29
667,35	34,82
667,39	24,58
667,43	28,67
667,47	14,34
667,51	-22,53
667,55	104,45
667,58	30,72
667,62	75,77
667,66	225,28
667,70	456,70
667,74	862,19
667,78	1435,63
667,82	1994,72
667,86	2281,44
667,90	2701,27
667,94	2934,74
667,98	3094,48
668,02	4188,10
668,06	4118,47
668,10	3049,43
668,13	2238,43
668,17	2308,06
668,21	2525,15
668,25	2691,03
668,29	2549,72
668,33	2475,99
668,37	2025,44
668,41	2047,97
668,45	2103,26
668,49	2293,72
668,53	2129,89
668,57	2244,57
668,60	2267,10
668,64	2170,85
668,68	2080,74
668,72	1884,13
668,76	1710,05
668,80	1447,91
668,84	1351,66
668,88	1155,05
668,92	995,31
668,96	1015,79
669,00	800,76
669,03	538,62
669,07	493,56
669,11	266,24
669,15	368,63
669,19	256,00
669,23	176,13
669,27	86,01
669,31	229,37
669,35	-2,05
669,39	67,58
669,42	106,49
669,46	165,89
669,50	131,07
669,54	-2,05
669,58	51,20
669,62	30,72
669,66	73,73
669,70	-18,43
669,74	-126,97
669,78	69,63
669,81	-102,40
669,85	90,11
669,89	71,68
669,93	61,44
669,97	49,15
670,01	-34,82
670,05	36,86
670,09	71,68
670,12	-67,58
670,16	24,58
670,20	18,43
670,24	61,44
670,28	-40,96
670,32	51,20
670,36	98,30
670,40	34,82
670,43	-67,58
670,47	-14,34
670,51	83,97
670,55	-14,34
670,59	18,43
670,63	57,34
670,67	0,00
670,71	-18,43
670,74	45,06
670,78	36,86
670,82	28,67
670,86	24,58
670,90	-24,58
670,94	-34,82
670,98	108,54
671,01	-32,77
671,05	153,60
671,09	-14,34
671,13	53,25
671,17	47,10
671,21	26,62
671,25	106,49
671,28	63,49
671,32	36,86
671,36	22,53
671,40	-4,10
671,44	-49,15
671,48	65,54
671,52	122,88
671,55	96,25
671,59	14,34
671,63	49,15
671,67	-49,15
671,71	86,01
671,75	-36,86
671,79	83,97
671,82	-34,82
671,86	69,63
671,90	32,77
671,94	-6,14
>>>>>End Processed Spectral Data<<<<<
