SpectraSuite Datei
++++++++++++++++++++++++++++++++++++
Datum: Wed Nov 28 12:12:33 CET 2018
Benutzer: Raman
Dark-Spektrum vorhanden: Ja
Referenz-Spektrum vorhanden: Ja
Zahl der probierten Teilspektren: 1
Spektrometer: USB4F00098
Integrationszeit (usec): 40000000 (USB4F00098)
Spektren Durchschnitt berechnet: 1 (USB4F00098)
Boxcar Glättung: 0 (USB4F00098)
Dunkelstromkorrektur: Nein (USB4F00098)
Puls/Lampe aktiviert: Nein (USB4F00098)
Correct for Detector Non-linearity: Nein (USB4F00098)
Streulichtkorrektur: Nein (USB4F00098)
Anzahl Pixel in verarbeitetem Spektrum: 3648
>>>>>Begin Processed Spectral Data<<<<<
-2184,52	-47,10
-2181,51	-47,10
-2178,50	-47,10
-2175,49	-8,19
-2172,49	-26,62
-2169,48	487,42
-2166,48	-186,37
-2163,48	-53,25
-2160,47	112,64
-2157,47	131,07
-2154,47	-278,52
-2151,48	-108,54
-2148,48	110,59
-2145,49	118,78
-2142,49	96,25
-2139,50	49,15
-2136,51	-81,92
-2133,52	65,53
-2130,53	223,23
-2127,54	661,49
-2124,55	403,45
-2121,57	884,72
-2118,58	815,09
-2115,60	460,79
-2112,62	854,00
-2109,64	993,26
-2106,66	821,24
-2103,68	466,94
-2100,70	770,04
-2097,73	716,79
-2094,75	909,30
-2091,78	524,28
-2088,81	557,05
-2085,83	509,94
-2082,86	417,79
-2079,90	417,79
-2076,93	802,80
-2073,96	559,10
-2071,00	518,14
-2068,03	727,03
-2065,07	356,35
-2062,11	679,93
-2059,15	661,49
-2056,19	741,36
-2053,23	835,57
-2050,27	886,77
-2047,32	782,32
-2044,36	854,00
-2041,41	673,78
-2038,46	571,38
-2035,51	413,69
-2032,56	1148,91
-2029,61	614,39
-2026,66	608,25
-2023,72	944,11
-2020,77	735,22
-2017,83	724,98
-2014,88	759,80
-2011,94	536,57
-2009,00	563,19
-2006,06	577,53
-2003,13	657,40
-2000,19	284,67
-1997,25	661,49
-1994,32	464,89
-1991,39	610,29
-1988,45	507,90
-1985,52	731,12
-1982,59	630,77
-1979,67	714,74
-1976,74	808,95
-1973,81	1073,14
-1970,89	499,70
-1967,96	524,28
-1965,04	378,87
-1962,12	737,27
-1959,20	731,12
-1956,28	817,14
-1953,36	653,30
-1950,45	628,73
-1947,53	417,79
-1944,62	563,19
-1941,70	659,45
-1938,79	729,08
-1935,88	536,57
-1932,97	579,58
-1930,06	528,38
-1927,15	481,27
-1924,25	688,12
-1921,34	489,46
-1918,44	563,19
-1915,54	737,27
-1912,63	458,74
-1909,73	636,92
-1906,83	645,11
-1903,94	643,06
-1901,04	565,24
-1898,14	710,65
-1895,25	526,33
-1892,36	716,79
-1889,46	516,09
-1886,57	366,59
-1883,68	770,04
-1880,79	720,89
-1877,91	550,90
-1875,02	686,07
-1872,13	651,25
-1869,25	538,62
-1866,37	802,80
-1863,48	567,29
-1860,60	935,92
-1857,72	456,70
-1854,84	729,08
-1851,97	450,55
-1849,09	659,45
-1846,22	446,46
-1843,34	636,92
-1840,47	491,51
-1837,60	495,61
-1834,73	587,77
-1831,86	612,34
-1828,99	471,03
-1826,12	825,33
-1823,26	657,40
-1820,39	413,69
-1817,53	442,36
-1814,67	647,16
-1811,80	606,20
-1808,94	354,30
-1806,08	759,80
-1803,23	577,53
-1800,37	323,58
-1797,51	841,72
-1794,66	753,65
-1791,81	430,07
-1788,95	581,62
-1786,10	344,06
-1783,25	339,96
-1780,40	403,45
-1777,56	59,39
-1774,71	315,39
-1771,86	548,86
-1769,02	548,86
-1766,18	409,59
-1763,33	526,33
-1760,49	491,51
-1757,65	641,01
-1754,81	274,43
-1751,98	552,95
-1749,14	481,27
-1746,30	493,56
-1743,47	483,32
-1740,64	604,15
-1737,81	495,61
-1734,97	561,14
-1732,14	630,77
-1729,32	741,36
-1726,49	616,44
-1723,66	729,08
-1720,84	538,62
-1718,01	657,40
-1715,19	598,01
-1712,37	686,07
-1709,55	325,63
-1706,73	700,41
-1703,91	530,42
-1701,09	481,27
-1698,27	565,24
-1695,46	765,94
-1692,65	462,84
-1689,83	454,65
-1687,02	131,07
-1684,21	243,71
-1681,40	374,78
-1678,59	446,46
-1675,78	403,45
-1672,98	374,78
-1670,17	778,23
-1667,37	493,56
-1664,56	317,44
-1661,76	602,10
-1658,96	569,34
-1656,16	348,15
-1653,36	702,45
-1650,57	518,14
-1647,77	188,41
-1644,97	399,35
-1642,18	798,71
-1639,39	618,49
-1636,60	563,19
-1633,80	163,84
-1631,01	438,27
-1628,23	438,27
-1625,44	456,70
-1622,65	1019,89
-1619,87	808,95
-1617,08	446,46
-1614,30	407,55
-1611,52	440,31
-1608,74	444,41
-1605,96	258,04
-1603,18	552,95
-1600,40	653,30
-1597,62	817,14
-1594,85	405,50
-1592,07	464,89
-1589,30	546,81
-1586,53	821,24
-1583,76	231,42
-1580,99	483,32
-1578,22	471,03
-1575,45	514,04
-1572,68	835,57
-1569,92	442,36
-1567,15	425,98
-1564,39	286,72
-1561,63	929,78
-1558,86	808,95
-1556,10	479,22
-1553,34	868,34
-1550,59	598,01
-1547,83	518,14
-1545,07	604,15
-1542,32	528,38
-1539,56	657,40
-1536,81	458,74
-1534,06	380,92
-1531,31	780,28
-1528,56	415,74
-1525,81	763,89
-1523,06	618,49
-1520,32	212,99
-1517,57	385,02
-1514,83	507,90
-1512,09	509,94
-1509,34	532,47
-1506,60	569,34
-1503,86	342,01
-1501,12	266,24
-1498,39	309,24
-1495,65	395,26
-1492,91	487,42
-1490,18	686,07
-1487,45	401,40
-1484,71	442,36
-1481,98	643,06
-1479,25	579,58
-1476,52	337,91
-1473,80	202,75
-1471,07	344,06
-1468,34	684,02
-1465,62	552,95
-1462,89	692,21
-1460,17	735,22
-1457,45	571,38
-1454,73	475,13
-1452,01	559,10
-1449,29	552,95
-1446,57	690,17
-1443,86	507,90
-1441,14	942,07
-1438,43	294,91
-1435,71	403,45
-1433,00	161,79
-1430,29	321,53
-1427,58	241,66
-1424,87	270,33
-1422,16	518,14
-1419,46	477,18
-1416,75	145,41
-1414,05	546,81
-1411,34	622,58
-1408,64	559,10
-1405,94	374,78
-1403,24	509,94
-1400,54	536,57
-1397,84	-980,98
-1395,14	600,05
-1392,45	856,05
-1389,75	385,02
-1387,06	493,56
-1384,36	299,00
-1381,67	528,38
-1378,98	651,25
-1376,29	563,19
-1373,60	583,67
-1370,91	530,42
-1368,23	528,38
-1365,54	653,30
-1362,86	505,85
-1360,17	649,21
-1357,49	348,15
-1354,81	610,29
-1352,13	215,04
-1349,45	729,08
-1346,77	206,84
-1344,09	655,35
-1341,42	548,86
-1338,74	370,68
-1336,07	587,77
-1333,39	180,22
-1330,72	567,29
-1328,05	335,87
-1325,38	319,48
-1322,71	247,80
-1320,04	397,31
-1317,37	559,10
-1314,71	542,71
-1312,04	432,12
-1309,38	473,08
-1306,72	677,88
-1304,05	391,16
-1301,39	368,63
-1298,73	299,00
-1296,08	313,34
-1293,42	200,70
-1290,76	268,28
-1288,10	475,13
-1285,45	344,06
-1282,80	456,70
-1280,14	409,59
-1277,49	323,58
-1274,84	376,83
-1272,19	630,77
-1269,54	452,60
-1266,90	565,24
-1264,25	638,97
-1261,60	444,41
-1258,96	542,71
-1256,32	542,71
-1253,67	419,83
-1251,03	501,75
-1248,39	704,50
-1245,75	653,30
-1243,11	516,09
-1240,48	471,03
-1237,84	497,66
-1235,20	753,65
-1232,57	479,22
-1229,94	479,22
-1227,31	546,81
-1224,67	452,60
-1222,04	557,05
-1219,41	411,64
-1216,79	335,87
-1214,16	591,86
-1211,53	475,13
-1208,91	307,20
-1206,28	262,14
-1203,66	501,75
-1201,04	616,44
-1198,42	544,76
-1195,80	366,59
-1193,18	315,39
-1190,56	477,18
-1187,94	505,85
-1185,33	256,00
-1182,71	372,73
-1180,10	92,16
-1177,49	-26,62
-1174,87	565,24
-1172,26	399,35
-1169,65	301,05
-1167,04	393,21
-1164,44	567,29
-1161,83	315,39
-1159,22	493,56
-1156,62	362,49
-1154,01	360,44
-1151,41	520,18
-1148,81	485,37
-1146,21	315,39
-1143,61	333,82
-1141,01	438,27
-1138,41	344,06
-1135,81	403,45
-1133,22	190,46
-1130,62	567,29
-1128,03	378,87
-1125,44	559,10
-1122,84	331,77
-1120,25	645,11
-1117,66	432,12
-1115,07	411,64
-1112,49	169,98
-1109,90	432,12
-1107,31	454,65
-1104,73	178,17
-1102,14	616,44
-1099,56	483,32
-1096,98	364,54
-1094,40	90,11
-1091,82	432,12
-1089,24	684,02
-1086,66	380,92
-1084,08	354,30
-1081,51	419,83
-1078,93	114,69
-1076,36	434,17
-1073,79	333,82
-1071,21	526,33
-1068,64	339,96
-1066,07	139,26
-1063,50	444,41
-1060,93	532,47
-1058,37	489,46
-1055,80	378,87
-1053,24	86,01
-1050,67	557,05
-1048,11	559,10
-1045,55	403,45
-1042,99	417,79
-1040,42	176,13
-1037,87	630,77
-1035,31	313,34
-1032,75	391,16
-1030,19	389,11
-1027,64	337,91
-1025,08	428,03
-1022,53	307,20
-1019,98	186,37
-1017,43	57,34
-1014,88	264,19
-1012,33	366,59
-1009,78	233,47
-1007,23	434,17
-1004,68	145,41
-1002,14	362,49
-999,59	131,07
-997,05	671,73
-994,51	550,90
-991,96	350,20
-989,42	274,43
-986,88	290,81
-984,34	284,67
-981,81	514,04
-979,27	278,52
-976,73	612,34
-974,20	30,72
-971,66	434,17
-969,13	106,49
-966,60	323,58
-964,07	317,44
-961,54	94,21
-959,01	227,32
-956,48	559,10
-953,95	653,30
-951,43	468,98
-948,90	403,45
-946,38	378,87
-943,85	319,48
-941,33	483,32
-938,81	190,46
-936,29	364,54
-933,77	602,10
-931,25	393,21
-928,73	434,17
-926,22	581,62
-923,70	370,68
-921,19	180,22
-918,67	282,62
-916,16	249,85
-913,65	108,54
-911,14	157,69
-908,63	632,82
-906,12	231,42
-903,61	491,51
-901,10	503,80
-898,59	147,45
-896,09	157,69
-893,59	157,69
-891,08	372,73
-888,58	151,55
-886,08	516,09
-883,58	10,24
-881,08	335,87
-878,58	440,31
-876,08	256,00
-873,58	401,40
-871,09	352,25
-868,59	425,98
-866,10	391,16
-863,61	157,69
-861,12	557,05
-858,62	401,40
-856,13	75,77
-853,64	440,31
-851,16	458,74
-848,67	258,04
-846,18	397,31
-843,70	387,07
-841,21	124,93
-838,73	315,39
-836,25	231,42
-833,77	229,37
-831,28	325,63
-828,81	638,97
-826,33	219,13
-823,85	319,48
-821,37	399,35
-818,90	481,27
-816,42	376,83
-813,95	757,75
-811,47	337,91
-809,00	-1071,09
-806,53	450,55
-804,06	239,61
-801,59	278,52
-799,12	212,99
-796,65	837,62
-794,19	59,39
-791,72	235,52
-789,26	493,56
-786,79	405,50
-784,33	186,37
-781,87	333,82
-779,41	253,95
-776,95	323,58
-774,49	323,58
-772,03	524,28
-769,57	499,70
-767,12	108,54
-764,66	534,52
-762,21	546,81
-759,75	593,91
-757,30	237,56
-754,85	458,74
-752,40	-126,97
-749,95	94,21
-747,50	530,42
-745,05	511,99
-742,60	270,33
-740,16	200,70
-737,71	206,84
-735,27	276,48
-732,82	290,81
-730,38	456,70
-727,94	147,45
-725,50	329,72
-723,06	272,38
-720,62	301,05
-718,18	323,58
-715,74	581,62
-713,31	137,21
-710,87	77,82
-708,44	315,39
-706,01	387,07
-703,57	370,68
-701,14	299,00
-698,71	354,30
-696,28	425,98
-693,85	147,45
-691,42	270,33
-689,00	96,25
-686,57	352,25
-684,15	151,55
-681,72	325,63
-679,30	178,17
-676,88	303,10
-674,45	485,37
-672,03	282,62
-669,61	315,39
-667,20	-12,29
-664,78	405,50
-662,36	288,76
-659,94	215,04
-657,53	686,07
-655,12	358,39
-652,70	417,79
-650,29	409,59
-647,88	258,04
-645,47	528,38
-643,06	370,68
-640,65	161,79
-638,24	532,47
-635,83	366,59
-633,43	282,62
-631,02	520,18
-628,62	393,21
-626,22	346,11
-623,81	618,49
-621,41	411,64
-619,01	163,84
-616,61	342,01
-614,21	503,80
-611,81	327,68
-609,42	239,61
-607,02	2109,41
-604,63	288,76
-602,23	497,66
-599,84	450,55
-597,45	266,24
-595,05	212,99
-592,66	567,29
-590,27	182,27
-587,88	550,90
-585,50	622,58
-583,11	462,84
-580,72	147,45
-578,34	333,82
-575,95	376,83
-573,57	516,09
-571,19	149,50
-568,80	378,87
-566,42	382,97
-564,04	550,90
-561,66	432,12
-559,29	395,26
-556,91	499,70
-554,53	280,57
-552,16	323,58
-549,78	600,05
-547,41	372,73
-545,03	542,71
-542,66	393,21
-540,29	497,66
-537,92	589,82
-535,55	561,14
-533,18	440,31
-530,81	296,96
-528,45	1918,95
-526,08	456,70
-523,72	477,18
-521,35	419,83
-518,99	380,92
-516,63	155,65
-514,27	311,29
-511,90	309,24
-509,54	471,03
-507,19	155,65
-504,83	348,15
-502,47	296,96
-500,11	544,76
-497,76	438,27
-495,40	493,56
-493,05	440,31
-490,70	684,02
-488,35	432,12
-486,00	577,53
-483,65	667,64
-481,30	868,34
-478,95	466,94
-476,60	555,00
-474,25	499,70
-471,91	749,56
-469,56	477,18
-467,22	468,98
-464,88	503,80
-462,53	452,60
-460,19	421,88
-457,85	1028,08
-455,51	278,52
-453,17	-5330,86
-450,84	141,31
-448,50	468,98
-446,16	454,65
-443,83	538,62
-441,49	425,98
-439,16	401,40
-436,83	534,52
-434,50	665,59
-432,16	552,95
-429,83	538,62
-427,50	415,74
-425,18	487,42
-422,85	651,25
-420,52	548,86
-418,20	481,27
-415,87	471,03
-413,55	782,32
-411,22	473,08
-408,90	397,31
-406,58	397,31
-404,26	382,97
-401,94	659,45
-399,62	696,31
-397,30	550,90
-394,99	325,63
-392,67	622,58
-390,35	540,66
-388,04	491,51
-385,73	337,91
-383,41	339,96
-381,10	931,83
-378,79	380,92
-376,48	712,69
-374,17	700,41
-371,86	563,19
-369,55	561,14
-367,25	724,98
-364,94	499,70
-362,64	667,64
-360,33	511,99
-358,03	331,77
-355,73	387,07
-353,42	530,42
-351,12	868,34
-348,82	303,10
-346,52	696,31
-344,23	468,98
-341,93	653,30
-339,63	610,29
-337,34	552,95
-335,04	526,33
-332,75	704,50
-330,45	679,93
-328,16	413,69
-325,87	362,49
-323,58	673,78
-321,29	593,91
-319,00	731,12
-316,71	-16,38
-314,42	180,22
-312,14	333,82
-309,85	280,57
-307,57	421,88
-305,28	149,50
-303,00	323,58
-300,72	458,74
-298,44	243,71
-296,16	380,92
-293,88	249,85
-291,60	-22,53
-289,32	425,98
-287,04	262,14
-284,77	520,18
-282,49	36,86
-280,22	241,66
-277,94	471,03
-275,67	348,15
-273,40	370,68
-271,13	114,69
-268,85	407,55
-266,59	503,80
-264,32	161,79
-262,05	307,20
-259,78	235,52
-257,51	186,37
-255,25	210,94
-252,98	303,10
-250,72	323,58
-248,46	155,65
-246,20	217,08
-243,93	366,59
-241,67	-65,54
-239,41	344,06
-237,16	354,30
-234,90	194,56
-232,64	96,25
-230,38	237,56
-228,13	110,59
-225,87	335,87
-223,62	59,39
-221,37	296,96
-219,11	256,00
-216,86	110,59
-214,61	231,42
-212,36	354,30
-210,11	286,72
-207,87	-18,43
-205,62	-49,15
-203,37	266,24
-201,13	522,23
-198,88	32,77
-196,64	358,39
-194,39	251,90
-192,15	49,15
-189,91	163,84
-187,67	266,24
-185,43	-12,29
-183,19	266,24
-180,95	180,22
-178,72	141,31
-176,48	317,44
-174,24	86,01
-172,01	247,80
-169,77	75,77
-167,54	296,96
-165,31	360,44
-163,08	196,61
-160,85	161,79
-158,62	208,89
-156,39	309,24
-154,16	264,19
-151,93	540,66
-149,70	428,03
-147,48	180,22
-145,25	364,54
-143,03	348,15
-140,81	256,00
-138,58	227,32
-136,36	327,68
-134,14	233,47
-131,92	364,54
-129,70	724,98
-127,48	567,29
-125,26	206,84
-123,05	309,24
-120,83	311,29
-118,62	524,28
-116,40	315,39
-114,19	339,96
-111,97	65,53
-109,76	-28,67
-107,55	-8,19
-105,34	309,24
-103,13	118,78
-100,92	149,50
-98,71	327,67
-96,51	303,10
-94,30	212,99
-92,09	73,73
-89,89	145,41
-87,69	538,62
-85,48	286,72
-83,28	299,00
-81,08	638,97
-78,88	479,22
-76,68	149,50
-74,48	155,65
-72,28	337,91
-70,08	540,66
-67,88	376,83
-65,69	514,04
-63,49	438,27
-61,30	317,44
-59,11	436,22
-56,91	331,77
-54,72	360,44
-52,53	362,49
-50,34	677,88
-48,15	434,17
-45,96	356,35
-43,77	303,10
-41,59	710,65
-39,40	208,89
-37,21	256,00
-35,03	198,65
-32,84	321,53
-30,66	575,48
-28,48	413,69
-26,30	690,17
-24,12	651,25
-21,94	1511,40
-19,76	2349,02
-17,58	3901,38
-15,40	6858,65
-13,22	12408,64
-11,05	19234,52
-8,87	26582,63
-6,70	30989,86
-4,52	39005,61
-2,35	37156,30
-0,18	37105,10
1,99	38256,06
4,16	33578,50
6,33	30479,92
8,50	26885,73
10,67	20633,29
12,84	17483,51
15,00	13705,01
17,17	11267,92
19,33	8785,79
21,50	6616,99
23,66	5560,24
25,83	4665,27
27,99	3035,09
30,15	2416,60
32,31	1732,58
34,47	999,41
36,63	942,07
38,79	835,57
40,94	692,21
43,10	301,05
45,25	235,52
47,41	452,60
49,56	706,55
51,72	118,78
53,87	186,37
56,02	624,63
58,17	190,46
60,32	-135,17
62,47	100,35
64,62	274,43
66,77	305,15
68,92	219,13
71,06	122,88
73,21	190,46
75,35	350,20
77,50	276,48
79,64	661,49
81,78	-6,14
83,92	466,94
86,06	462,84
88,20	317,44
90,34	485,37
92,48	342,01
94,62	253,95
96,76	129,02
98,89	270,33
101,03	376,83
103,16	495,61
105,30	589,82
107,43	524,28
109,56	100,35
111,69	370,68
113,82	411,64
115,95	325,63
118,08	319,48
120,21	555,00
122,34	464,89
124,47	59,39
126,59	299,00
128,72	24,58
130,84	333,82
132,97	131,07
135,09	358,39
137,21	180,22
139,33	83,97
141,45	337,91
143,57	354,30
145,69	194,56
147,81	641,01
149,93	366,59
152,05	321,53
154,16	393,21
156,28	348,15
158,39	169,98
160,51	552,95
162,62	241,66
164,73	479,22
166,85	425,98
168,96	247,80
171,07	276,48
173,18	309,24
175,28	376,83
177,39	86,01
179,50	276,48
181,61	497,66
183,71	530,42
185,82	358,39
187,92	131,07
190,02	401,40
192,13	344,06
194,23	645,11
196,33	473,08
198,43	602,10
200,53	567,29
202,63	700,41
204,72	274,43
206,82	260,09
208,92	12,29
211,01	243,71
213,11	92,16
215,20	368,63
217,30	163,84
219,39	372,73
221,48	393,21
223,57	47,10
225,66	491,51
227,75	69,63
229,84	552,95
231,93	237,56
234,02	452,60
236,10	319,48
238,19	344,06
240,28	63,49
242,36	684,02
244,44	268,28
246,53	393,21
248,61	634,87
250,69	530,42
252,77	987,12
254,85	974,83
256,93	862,19
259,01	876,53
261,09	1169,39
263,16	1284,08
265,24	1564,65
267,32	1607,66
269,39	1714,15
271,46	1834,98
273,54	1972,19
275,61	2031,59
277,68	2396,12
279,75	2076,64
281,82	2336,73
283,89	2490,33
285,96	2289,63
288,03	2209,76
290,10	2480,09
292,16	2607,06
294,23	2396,12
296,29	2486,23
298,36	2463,71
300,42	1976,29
302,49	2406,36
304,55	2295,77
306,61	2240,48
308,67	1572,84
310,73	2426,84
312,79	2023,39
314,85	2482,14
316,90	2330,59
318,96	2234,33
321,02	2263,01
323,07	2373,60
325,13	2074,59
327,18	2150,37
329,24	2201,57
331,29	2336,73
333,34	2260,96
335,39	2230,24
337,44	1871,84
339,49	2406,36
341,54	2308,06
343,59	1898,47
345,64	2363,36
347,68	2144,22
349,73	2011,11
351,77	1996,77
353,82	2101,22
355,86	1961,95
357,90	2166,75
359,95	1955,81
361,99	2260,96
364,03	2426,84
366,07	2189,28
368,11	1824,74
370,15	2265,05
372,19	2260,96
374,22	2097,12
376,26	2138,08
378,29	2197,47
380,33	1875,94
382,36	2408,41
384,40	2019,30
386,43	9154,42
388,46	2287,58
390,49	2121,70
392,52	2023,39
394,55	1976,29
396,58	1974,24
398,61	1937,38
400,64	1820,64
402,67	2068,45
404,69	2217,95
406,72	2031,58
408,74	2023,39
410,77	2306,01
412,79	2019,30
414,81	2273,25
416,84	2113,50
418,86	2095,07
420,88	2045,92
422,90	2205,66
424,92	2289,63
426,94	2224,09
428,95	1966,05
430,97	2152,42
432,99	2185,18
435,00	2279,39
437,02	2512,86
439,03	2095,07
441,04	2133,98
443,06	2299,87
445,07	1964,00
447,08	1679,33
449,09	1980,39
451,10	2201,57
453,11	2117,60
455,12	2224,09
457,13	2152,42
459,13	2060,26
461,14	2220,00
463,14	2176,99
465,15	2033,63
467,15	2226,14
469,16	2250,72
471,16	1875,94
473,16	2179,04
475,16	1998,82
477,16	2250,72
479,16	1853,41
481,16	2504,67
483,16	2047,97
485,16	2164,70
487,15	1834,98
489,15	2222,05
491,15	2185,18
493,14	2105,31
495,14	2269,15
497,13	2031,59
499,12	2043,87
501,11	2211,81
503,11	1898,47
505,10	2060,26
507,09	2224,09
509,07	2056,16
511,06	2148,32
513,05	1796,07
515,04	1677,29
517,02	2039,78
519,01	1830,88
521,00	2013,15
522,98	2222,05
524,96	2103,26
526,95	2207,71
528,93	2107,36
530,91	2174,94
532,89	2099,17
534,87	2125,79
536,85	1093,62
538,83	1927,14
540,81	1998,82
542,78	1968,10
544,76	1908,71
546,74	1738,73
548,71	1935,33
550,69	2019,30
552,66	1994,72
554,63	2146,27
556,60	2002,91
558,58	1781,73
560,55	1904,61
562,52	1847,27
564,49	1951,71
566,46	2125,79
568,42	1998,82
570,39	2105,31
572,36	1890,28
574,32	1855,46
576,29	1877,99
578,25	1861,60
580,22	1689,57
582,18	1845,22
584,14	2263,01
586,11	1908,71
588,07	2240,48
590,03	1796,07
591,99	1652,71
593,95	1892,32
595,90	2129,89
597,86	2004,96
599,82	1650,66
601,78	1742,82
603,73	1955,81
605,69	1695,72
607,64	2101,22
609,59	1996,77
611,55	1693,67
613,50	1777,64
615,45	1945,57
617,40	1609,70
619,35	1751,01
621,30	1880,04
623,25	1890,28
625,20	1970,15
627,15	2121,70
629,09	1871,84
631,04	1419,24
632,98	1781,73
634,93	1765,35
636,87	1660,90
638,82	1468,39
640,76	1824,74
642,70	1744,87
644,64	1738,73
646,58	1753,06
648,52	1783,78
650,46	1609,70
652,40	1877,99
654,34	1775,59
656,27	1759,21
658,21	1783,78
660,15	1722,34
662,08	1865,70
664,02	1746,92
665,95	1587,18
667,88	1751,01
669,82	1660,90
671,75	1730,53
673,68	1644,52
675,61	1763,30
677,54	1898,47
679,47	1552,36
681,40	1646,57
683,32	1798,12
685,25	1523,69
687,18	1587,18
689,10	1697,77
691,03	1880,04
692,95	1527,78
694,87	1611,75
696,80	1482,73
698,72	1540,07
700,64	1681,38
702,56	1568,74
704,48	1376,24
706,40	1755,11
708,32	1771,49
710,24	1697,77
712,16	1544,17
714,07	1804,26
715,99	1912,80
717,90	1560,55
719,82	1564,65
721,73	1701,86
723,65	1642,47
725,56	1822,69
727,47	1603,56
729,38	1857,51
731,29	1507,30
733,20	1501,16
735,11	1759,21
737,02	1607,66
738,93	1517,54
740,84	1693,67
742,74	1560,55
744,65	1615,85
746,55	1527,78
748,46	1433,58
750,36	1613,80
752,27	1796,07
754,17	1576,94
756,07	1396,71
757,97	1738,73
759,87	1734,63
761,77	1777,64
763,67	1798,12
765,57	1316,84
767,47	1994,72
769,37	1724,39
771,26	1654,76
773,16	1572,84
775,06	1683,43
776,95	1341,42
778,84	1746,92
780,74	1456,11
782,63	1703,91
784,52	1341,42
786,41	1816,55
788,30	1734,63
790,19	1781,73
792,08	1697,77
793,97	1671,14
795,86	1507,31
797,75	1734,63
799,63	1712,10
801,52	1495,02
803,41	1441,77
805,29	1824,74
807,18	1431,53
809,06	1628,14
810,94	1966,05
812,82	1499,11
814,70	1603,56
816,59	1693,67
818,47	1583,08
820,35	1628,14
822,22	1564,65
824,10	1845,22
825,98	1458,15
827,86	1521,64
829,73	1640,42
831,61	1652,71
833,48	1695,72
835,36	1734,63
837,23	1650,66
839,10	1533,93
840,98	1392,62
842,85	1486,83
844,72	1482,73
846,59	1308,65
848,46	1419,24
850,33	1720,29
852,20	1578,98
854,06	1759,21
855,93	1642,47
857,80	1564,65
859,66	1544,17
861,53	1650,66
863,39	1292,27
865,26	1384,43
867,12	1210,35
868,98	1386,47
870,84	1298,41
872,71	1193,97
874,57	1282,03
876,43	1581,03
878,29	1427,43
880,14	1495,02
882,00	1277,93
883,86	1441,77
885,72	1425,39
887,57	1470,44
889,43	1159,15
891,28	1466,35
893,14	1531,88
894,99	1419,24
896,84	1497,07
898,69	1409,00
900,55	1249,26
902,40	1148,91
904,25	1353,71
906,10	1382,38
907,95	1789,92
909,79	1398,76
911,64	1464,30
913,49	1546,22
915,34	1490,92
917,18	1316,84
919,03	1232,88
920,87	1722,34
922,71	1337,32
924,56	1624,04
926,40	913,39
928,24	1466,35
930,08	1306,60
931,92	1347,56
933,76	1585,13
935,60	1341,42
937,44	1312,75
939,28	1318,89
941,12	1855,46
942,95	1204,21
944,79	1265,64
946,62	1409,00
948,46	1353,71
950,29	1239,02
952,13	1322,99
953,96	1122,29
955,79	1398,76
957,62	1275,88
959,46	1048,56
961,29	940,02
963,12	1374,19
964,94	1200,11
966,77	1224,69
968,60	1415,15
970,43	1484,78
972,25	1437,67
974,08	1312,75
975,91	1056,75
977,73	1304,56
979,55	1189,87
981,38	1314,80
983,20	1212,40
985,02	1124,33
986,84	1263,60
988,66	1421,29
990,49	1456,11
992,30	1138,67
994,12	1411,05
995,94	1019,89
997,76	1615,85
999,58	1415,15
1001,39	1214,45
1003,21	1247,21
1005,02	1343,47
1006,84	1247,21
1008,65	1298,41
1010,47	1265,64
1012,28	1378,28
1014,09	1212,40
1015,90	1447,91
1017,71	1349,61
1019,52	1363,95
1021,33	137,21
1023,14	1310,70
1024,95	1171,44
1026,76	1021,94
1028,56	1181,68
1030,37	1226,73
1032,18	1372,14
1033,98	1368,04
1035,79	1370,09
1037,59	1296,36
1039,39	1218,54
1041,20	1038,32
1043,00	1204,21
1044,80	1048,56
1046,60	1437,67
1048,40	1509,35
1050,20	1150,96
1052,00	1159,15
1053,80	1085,42
1055,59	989,17
1057,39	1497,07
1059,19	1269,74
1060,98	1034,22
1062,78	1097,71
1064,57	1239,02
1066,37	944,11
1068,16	1234,93
1069,95	1185,77
1071,75	1462,25
1073,54	1427,43
1075,33	1214,45
1077,12	1353,71
1078,91	1331,18
1080,70	1085,42
1082,48	1292,27
1084,27	1091,57
1086,06	1320,94
1087,85	1105,90
1089,63	925,68
1091,42	1411,05
1093,20	1191,92
1094,99	950,26
1096,77	1439,72
1098,55	1230,83
1100,33	1376,24
1102,12	1019,89
1103,90	1308,65
1105,68	1318,89
1107,46	858,10
1109,24	1286,12
1111,01	1193,97
1112,79	1132,53
1114,57	1107,95
1116,35	1161,20
1118,12	1476,59
1119,90	1333,23
1121,67	1079,28
1123,45	1142,77
1125,22	1241,07
1126,99	1177,58
1128,77	1327,08
1130,54	1341,42
1132,31	1062,90
1134,08	1574,89
1135,85	1626,09
1137,62	1413,10
1139,39	1376,23
1141,15	1026,03
1142,92	1032,18
1144,69	1142,77
1146,46	1128,43
1148,22	1302,51
1149,99	1314,80
1151,75	1204,21
1153,51	1138,67
1155,28	976,88
1157,04	1204,21
1158,80	1402,86
1160,56	1228,78
1162,32	1482,73
1164,08	983,02
1165,84	1169,39
1167,60	1187,82
1169,36	1265,64
1171,12	1058,80
1172,88	931,83
1174,63	1275,88
1176,39	1322,99
1178,14	1101,81
1179,90	1155,05
1181,65	1550,31
1183,41	1409,00
1185,16	1144,81
1186,91	1318,89
1188,66	1302,51
1190,41	1167,34
1192,16	1099,76
1193,91	1275,88
1195,66	1101,81
1197,41	1306,60
1199,16	1204,21
1200,91	1386,47
1202,66	1056,75
1204,40	1282,03
1206,15	1167,34
1207,89	1107,95
1209,64	1179,63
1211,38	1284,08
1213,12	1101,81
1214,87	688,12
1216,61	964,59
1218,35	1110,00
1220,09	1277,93
1221,83	1222,64
1223,57	1286,12
1225,31	907,25
1227,05	1325,04
1228,79	1208,30
1230,52	1165,29
1232,26	1087,47
1234,00	964,59
1235,73	1208,30
1237,47	1251,31
1239,20	954,35
1240,94	1081,33
1242,67	1284,08
1244,40	927,73
1246,13	1120,24
1247,86	903,15
1249,60	872,43
1251,33	1034,22
1253,06	1206,25
1254,78	1304,56
1256,51	1230,83
1258,24	1101,81
1259,97	1079,28
1261,69	1155,05
1263,42	1116,14
1265,15	1081,33
1266,87	1392,62
1268,59	1183,73
1270,32	1345,52
1272,04	1247,21
1273,76	1243,12
1275,49	1208,30
1277,21	1230,83
1278,93	1062,90
1280,65	1064,94
1282,37	960,50
1284,09	952,31
1285,81	1492,97
1287,52	1370,09
1289,24	1028,08
1290,96	1359,85
1292,67	1062,90
1294,39	1277,93
1296,10	1110,00
1297,82	1351,66
1299,53	1146,86
1301,24	1275,88
1302,96	1189,87
1304,67	1021,94
1306,38	993,26
1308,09	1310,70
1309,80	1128,43
1311,51	1169,39
1313,22	1101,81
1314,93	751,60
1316,64	1120,24
1318,34	1038,32
1320,05	1159,15
1321,75	1001,46
1323,46	1171,44
1325,17	1091,57
1326,87	1193,97
1328,57	913,39
1330,28	976,88
1331,98	1077,23
1333,68	1021,94
1335,38	1073,14
1337,08	1196,01
1338,78	1148,91
1340,48	1155,05
1342,18	1273,84
1343,88	1097,71
1345,58	946,16
1347,28	1292,27
1348,97	997,36
1350,67	1120,24
1352,36	1040,37
1354,06	1232,88
1355,75	1320,94
1357,45	1075,18
1359,14	1058,80
1360,83	950,26
1362,53	1124,33
1364,22	997,36
1365,91	1083,38
1367,60	1134,57
1369,29	1013,74
1370,98	962,55
1372,67	1079,28
1374,35	972,79
1376,04	1241,07
1377,73	1062,90
1379,41	1161,20
1381,10	1011,70
1382,79	1593,32
1384,47	1042,42
1386,15	1255,40
1387,84	1132,53
1389,52	1193,97
1391,20	1212,40
1392,88	892,91
1394,57	1288,17
1396,25	1128,43
1397,93	1159,15
1399,61	1335,28
1401,28	1107,95
1402,96	1124,33
1404,64	1370,09
1406,32	1042,42
1407,99	1058,80
1409,67	1286,12
1411,35	1120,24
1413,02	1169,39
1414,70	1484,78
1416,37	1497,07
1418,04	1400,81
1419,71	1177,58
1421,39	1105,90
1423,06	1019,89
1424,73	913,39
1426,40	909,30
1428,07	1099,76
1429,74	1028,08
1431,41	960,50
1433,08	1118,19
1434,74	1015,79
1436,41	1220,59
1438,08	1214,45
1439,74	1075,18
1441,41	1191,92
1443,07	1013,74
1444,74	1200,11
1446,40	1255,40
1448,06	1066,99
1449,72	1196,01
1451,39	1099,76
1453,05	1101,81
1454,71	978,93
1456,37	1200,11
1458,03	1169,39
1459,69	1380,33
1461,35	1228,78
1463,00	1013,74
1464,66	1173,49
1466,32	960,50
1467,97	1003,50
1469,63	1110,00
1471,28	1282,03
1472,94	958,45
1474,59	1103,86
1476,25	1005,55
1477,90	1247,21
1479,55	1019,89
1481,20	1265,64
1482,85	1169,39
1484,50	-466,94
1486,15	1091,57
1487,80	919,54
1489,45	991,22
1491,10	1243,12
1492,75	1234,93
1494,40	1021,94
1496,04	1218,54
1497,69	1259,50
1499,33	1050,61
1500,98	1130,48
1502,62	1087,47
1504,27	1368,04
1505,91	1171,44
1507,55	1161,20
1509,19	878,58
1510,84	1038,32
1512,48	1169,39
1514,12	1075,18
1515,76	980,98
1517,40	1206,25
1519,04	1167,34
1520,67	1245,17
1522,31	1165,29
1523,95	763,89
1525,59	890,87
1527,22	1144,81
1528,86	1288,17
1530,49	1417,19
1532,13	1165,29
1533,76	991,22
1535,39	1275,88
1537,03	1169,39
1538,66	1169,39
1540,29	995,31
1541,92	1122,29
1543,55	1179,63
1545,18	1288,17
1546,81	1134,57
1548,44	1292,27
1550,07	1216,49
1551,70	1535,98
1553,32	1351,66
1554,95	1265,64
1556,58	1136,62
1558,20	1177,58
1559,83	1263,60
1561,45	1163,25
1563,07	1322,99
1564,70	1253,36
1566,32	1046,51
1567,94	1380,33
1569,56	1017,84
1571,19	1363,95
1572,81	1576,94
1574,43	1171,44
1576,05	1234,93
1577,66	1644,52
1579,28	1179,63
1580,90	1189,87
1582,52	962,55
1584,14	1228,78
1585,75	1624,04
1587,37	1159,15
1588,98	1304,56
1590,60	1683,43
1592,21	1208,30
1593,82	1357,80
1595,44	1320,94
1597,05	1402,86
1598,66	1243,12
1600,27	1150,96
1601,88	1159,15
1603,49	-9447,28
1605,10	1292,27
1606,71	1589,22
1608,32	1267,69
1609,93	1593,32
1611,54	1486,83
1613,14	1404,91
1614,75	1497,07
1616,36	1574,89
1617,96	1519,59
1619,57	1773,54
1621,17	1568,74
1622,77	1191,92
1624,38	1621,99
1625,98	1470,44
1627,58	1456,11
1629,18	1613,80
1630,78	1331,18
1632,38	1097,71
1633,98	1480,68
1635,58	1722,34
1637,18	1695,72
1638,78	1968,10
1640,38	1642,47
1641,98	1357,80
1643,57	1832,93
1645,17	1744,87
1646,76	1736,68
1648,36	1394,67
1649,95	1753,06
1651,55	1634,28
1653,14	1769,44
1654,73	1824,74
1656,33	1474,54
1657,92	1652,71
1659,51	1482,73
1661,10	1396,71
1662,69	1335,28
1664,28	1556,46
1665,87	1480,68
1667,46	1515,50
1669,05	1468,39
1670,63	1335,28
1672,22	1046,51
1673,81	1443,82
1675,39	1372,14
1676,98	1558,50
1678,56	1159,15
1680,15	1482,73
1681,73	1341,42
1683,31	1263,60
1684,90	1329,13
1686,48	1122,29
1688,06	1337,32
1689,64	1609,70
1691,22	1261,55
1692,80	1046,51
1694,38	1003,50
1695,96	1421,29
1697,54	1433,58
1699,12	1157,10
1700,69	1329,13
1702,27	1353,71
1703,85	1173,49
1705,42	1069,04
1707,00	1028,08
1708,57	1208,30
1710,15	1251,31
1711,72	872,43
1713,29	1198,06
1714,87	1026,03
1716,44	1267,69
1718,01	1071,09
1719,58	962,55
1721,15	890,87
1722,72	1204,21
1724,29	1058,80
1725,86	1120,24
1727,43	1122,29
1729,00	841,72
1730,56	972,79
1732,13	931,83
1733,70	841,72
1735,26	972,79
1736,83	1204,21
1738,39	999,41
1739,96	991,22
1741,52	1052,66
1743,08	923,63
1744,65	778,23
1746,21	948,21
1747,77	880,63
1749,33	878,58
1750,89	722,93
1752,45	1007,60
1754,01	817,14
1755,57	667,64
1757,13	958,45
1758,69	929,78
1760,24	983,02
1761,80	743,41
1763,36	669,69
1764,91	679,93
1766,47	649,21
1768,02	1062,90
1769,58	829,43
1771,13	811,00
1772,68	692,21
1774,24	970,74
1775,79	471,03
1777,34	878,58
1778,89	1011,70
1780,44	743,41
1781,99	589,82
1783,54	874,48
1785,09	907,25
1786,64	880,63
1788,19	714,74
1789,73	571,38
1791,28	864,24
1792,83	667,64
1794,37	759,80
1795,92	1089,52
1797,46	890,87
1799,01	1032,18
1800,55	1179,63
1802,09	995,31
1803,64	876,53
1805,18	1159,15
1806,72	808,95
1808,26	571,38
1809,80	1017,84
1811,34	821,24
1812,88	905,20
1814,42	968,69
1815,96	966,64
1817,50	925,68
1819,04	849,91
1820,57	636,92
1822,11	925,68
1823,65	905,20
1825,18	688,12
1826,72	854,00
1828,25	696,31
1829,78	1052,66
1831,32	770,04
1832,85	1009,65
1834,38	1062,90
1835,92	884,72
1837,45	718,84
1838,98	759,80
1840,51	731,12
1842,04	542,71
1843,57	854,00
1845,10	897,01
1846,62	870,39
1848,15	712,69
1849,68	706,55
1851,21	1077,23
1852,73	712,69
1854,26	811,00
1855,78	1034,22
1857,31	800,76
1858,83	647,16
1860,36	966,64
1861,88	589,82
1863,40	1105,90
1864,92	925,68
1866,45	942,07
1867,97	542,71
1869,49	806,90
1871,01	647,16
1872,53	851,96
1874,05	888,82
1875,57	890,87
1877,08	800,76
1878,60	657,40
1880,12	983,03
1881,64	759,80
1883,15	829,43
1884,67	796,66
1886,18	894,96
1887,70	602,10
1889,21	559,10
1890,72	735,22
1892,24	794,61
1893,75	667,64
1895,26	958,45
1896,77	923,63
1898,28	622,58
1899,79	864,24
1901,30	757,75
1902,81	770,04
1904,32	948,21
1905,83	770,04
1907,34	819,19
1908,85	604,15
1910,35	968,69
1911,86	927,73
1913,37	794,61
1914,87	767,99
1916,38	970,74
1917,88	913,39
1919,39	876,53
1920,89	720,89
1922,39	735,22
1923,89	481,27
1925,40	849,91
1926,90	770,04
1928,40	770,04
1929,90	749,56
1931,40	1040,37
1932,90	755,70
1934,40	610,29
1935,90	790,52
1937,39	747,51
1938,89	1009,65
1940,39	780,28
1941,89	1003,50
1943,38	684,02
1944,88	587,77
1946,37	706,55
1947,87	1003,50
1949,36	772,08
1950,85	778,23
1952,35	661,49
1953,84	405,50
1955,33	743,41
1956,82	749,56
1958,31	559,10
1959,80	927,73
1961,29	790,52
1962,78	673,78
1964,27	849,91
1965,76	616,44
1967,25	862,19
1968,74	880,63
1970,22	897,01
1971,71	630,77
1973,20	716,79
1974,68	686,07
1976,17	462,84
1977,65	960,50
1979,14	720,89
1980,62	788,47
1982,10	806,90
1983,58	774,13
1985,07	733,17
1986,55	649,21
1988,03	720,89
1989,51	1003,50
1990,99	811,00
1992,47	520,18
1993,95	1064,94
1995,43	942,07
1996,91	567,29
1998,38	1103,86
1999,86	1167,34
2001,34	1325,04
2002,81	716,79
2004,29	747,51
2005,76	1019,89
2007,24	708,60
2008,71	679,93
2010,19	1028,08
2011,66	677,88
2013,13	700,41
2014,60	1011,70
2016,08	729,08
2017,55	776,18
2019,02	944,11
2020,49	559,10
2021,96	843,76
2023,43	800,76
2024,90	774,13
2026,36	630,77
2027,83	722,93
2029,30	731,12
2030,77	649,21
2032,23	921,59
2033,70	819,19
2035,16	487,42
2036,63	854,00
2038,09	786,42
2039,56	755,70
2041,02	880,63
2042,48	1023,98
2043,95	964,59
2045,41	927,73
2046,87	548,86
2048,33	763,89
2049,79	911,35
2051,25	808,95
2052,71	847,86
2054,17	755,70
2055,63	763,89
2057,09	970,74
2058,54	600,05
2060,00	800,76
2061,46	1003,50
2062,91	921,59
2064,37	595,96
2065,82	714,74
2067,28	921,59
2068,73	665,59
2070,19	872,43
2071,64	737,27
2073,09	944,11
2074,54	892,91
2076,00	724,98
2077,45	770,04
2078,90	819,19
2080,35	831,48
2081,80	710,65
2083,25	878,58
2084,70	980,98
2086,14	698,36
2087,59	813,04
2089,04	993,26
2090,49	905,20
2091,93	948,21
2093,38	862,19
2094,83	753,65
2096,27	802,80
2097,71	548,86
2099,16	686,07
2100,60	825,33
2102,05	997,36
2103,49	1044,46
2104,93	741,36
2106,37	835,57
2107,81	878,58
2109,25	802,80
2110,69	1097,71
2112,13	720,89
2113,57	593,91
2115,01	679,93
2116,45	757,75
2117,89	792,56
2119,33	948,21
2120,76	667,64
2122,20	667,64
2123,63	835,57
2125,07	880,63
2126,51	839,67
2127,94	968,69
2129,37	755,70
2130,81	985,07
2132,24	661,49
2133,67	565,24
2135,11	854,00
2136,54	825,33
2137,97	770,04
2139,40	884,72
2140,83	729,08
2142,26	745,46
2143,69	796,66
2145,12	946,16
2146,55	706,55
2147,97	536,57
2149,40	686,07
2150,83	854,00
2152,25	743,41
2153,68	774,13
2155,11	989,17
2156,53	870,39
2157,96	690,17
2159,38	1040,37
2160,80	841,72
2162,23	415,74
2163,65	471,03
2165,07	813,04
2166,49	978,93
2167,91	737,27
2169,33	569,34
2170,75	561,14
2172,17	888,82
2173,59	974,83
2175,01	724,98
2176,43	747,51
2177,85	929,78
2179,27	608,25
2180,68	794,61
2182,10	706,55
2183,52	774,13
2184,93	790,52
2186,35	-1110,00
2187,76	651,25
2189,18	669,69
2190,59	831,48
2192,00	739,32
2193,42	673,78
2194,83	940,02
2196,24	983,02
2197,65	374,78
2199,06	2054,11
2200,47	800,76
2201,88	856,05
2203,29	499,70
2204,70	739,32
2206,11	849,91
2207,52	761,84
2208,93	677,88
2210,33	614,39
2211,74	722,93
2213,15	745,46
2214,55	647,16
2215,96	915,44
2217,36	579,58
2218,77	438,27
2220,17	692,21
2221,57	765,94
2222,98	587,77
2224,38	856,05
2225,78	565,24
2227,18	700,41
2228,58	487,42
2229,99	813,04
2231,39	653,30
2232,79	913,39
2234,18	600,05
2235,58	630,77
2236,98	548,86
2238,38	659,45
2239,78	475,13
2241,17	772,08
2242,57	645,11
2243,97	425,98
2245,36	710,65
2246,76	608,25
2248,15	667,64
2249,55	544,76
2250,94	704,50
2252,33	823,28
2253,73	649,21
2255,12	653,30
2256,51	761,84
2257,90	710,65
2259,29	743,41
2260,68	497,66
2262,07	909,30
2263,46	438,27
2264,85	397,31
2266,24	585,72
2267,63	714,74
2269,02	819,19
2270,40	643,06
2271,79	708,60
2273,18	882,67
2274,56	571,38
2275,95	692,21
2277,33	602,10
2278,72	532,47
2280,10	528,38
2281,49	757,75
2282,87	724,98
2284,25	630,77
2285,63	602,10
2287,02	608,25
2288,40	925,68
2289,78	495,61
2291,16	509,94
2292,54	483,32
2293,92	587,77
2295,30	753,65
2296,68	638,97
2298,05	657,40
2299,43	677,88
2300,81	557,05
2302,19	473,08
2303,56	333,82
2304,94	667,64
2306,31	641,01
2307,69	299,00
2309,06	806,90
2310,44	661,49
2311,81	591,86
2313,19	915,44
2314,56	546,81
2315,93	444,41
2317,30	563,19
2318,67	657,40
2320,04	686,07
2321,41	649,21
2322,78	622,58
2324,15	655,35
2325,52	612,34
2326,89	595,96
2328,26	585,72
2329,63	548,86
2331,00	360,44
2332,36	415,74
2333,73	509,94
2335,09	720,89
2336,46	528,38
2337,83	501,75
2339,19	350,20
2340,55	546,81
2341,92	626,68
2343,28	610,29
2344,64	473,08
2346,01	485,37
2347,37	524,28
2348,73	489,46
2350,09	630,77
2351,45	655,35
2352,81	413,69
2354,17	1333,23
2355,53	739,32
2356,89	641,01
2358,25	540,66
2359,61	489,46
2360,96	444,41
2362,32	628,73
2363,68	497,66
2365,03	798,71
2366,39	323,58
2367,74	514,04
2369,10	774,13
2370,45	763,89
2371,81	765,94
2373,16	497,66
2374,51	532,47
2375,86	565,24
2377,22	530,42
2378,57	505,85
2379,92	511,99
2381,27	507,90
2382,62	710,65
2383,97	282,62
2385,32	856,05
2386,67	425,98
2388,02	665,59
2389,37	557,05
2390,71	475,13
2392,06	782,32
2393,41	661,49
2394,75	667,64
2396,10	897,01
2397,44	520,18
2398,79	643,06
2400,13	540,66
2401,48	587,77
2402,82	399,35
2404,17	606,20
2405,51	776,18
2406,85	829,43
2408,19	561,14
2409,53	391,16
2410,87	509,94
2412,22	124,93
2413,56	448,51
2414,89	681,97
2416,23	841,72
2417,57	501,75
2418,91	573,43
2420,25	628,73
2421,59	825,33
2422,92	534,52
2424,26	550,90
2425,60	546,81
2426,93	612,34
2428,27	434,17
2429,60	577,53
2430,94	417,79
2432,27	595,96
2433,60	434,17
2434,94	436,22
2436,27	630,77
2437,60	454,65
2438,93	112,64
2440,27	552,95
2441,60	530,42
2442,93	630,77
2444,26	518,14
2445,59	667,64
2446,92	659,45
2448,24	395,26
2449,57	684,02
2450,90	499,70
2452,23	503,80
2453,55	657,40
2454,88	466,94
2456,21	638,97
2457,53	823,28
2458,86	454,65
2460,18	278,52
2461,51	409,59
2462,83	393,21
2464,15	376,83
2465,48	387,07
2466,80	485,37
2468,12	135,17
2469,44	516,09
2470,76	425,98
2472,09	526,33
2473,41	485,37
2474,73	495,61
2476,05	651,25
2477,36	491,51
2478,68	436,22
2480,00	428,03
2481,32	192,51
2482,64	548,86
2483,95	602,10
2485,27	864,24
2486,59	491,51
2487,90	516,09
2489,22	679,93
2490,53	563,19
2491,85	815,09
2493,16	460,79
2494,47	698,36
2495,79	405,50
2497,10	178,17
2498,41	301,05
2499,72	436,22
2501,03	565,24
2502,35	583,67
2503,66	534,52
2504,97	505,85
2506,28	335,87
2507,59	364,54
2508,89	331,77
2510,20	557,05
2511,51	370,68
2512,82	282,62
2514,12	2340,83
2515,43	520,18
2516,74	475,13
2518,04	1226,73
2519,35	389,11
2520,65	428,03
2521,96	569,34
2523,26	272,38
2524,57	30,72
2525,87	579,58
2527,17	530,42
2528,47	452,60
2529,78	567,29
2531,08	350,20
2532,38	618,49
2533,68	606,20
2534,98	555,00
2536,28	413,69
2537,58	468,98
2538,88	460,79
2540,18	288,76
2541,47	649,21
2542,77	487,42
2544,07	321,53
2545,37	434,17
2546,66	528,38
2547,96	276,48
2549,25	-651,25
2550,55	565,24
2551,84	305,15
2553,14	387,07
2554,43	780,28
2555,72	235,52
2557,02	573,43
2558,31	182,27
2559,60	149,50
2560,89	260,09
2562,18	573,43
2563,48	546,81
2564,77	542,71
2566,06	620,53
2567,35	602,10
2568,63	387,07
2569,92	231,42
2571,21	688,12
2572,50	18,43
2573,79	462,84
2575,07	483,32
2576,36	360,44
2577,65	243,71
2578,93	538,62
2580,22	743,41
2581,50	679,93
2582,79	1708,01
2584,07	487,42
2585,36	464,89
2586,64	329,72
2587,92	595,96
2589,20	413,69
2590,49	495,61
2591,77	450,55
2593,05	352,25
2594,33	292,86
2595,61	614,39
2596,89	358,39
2598,17	497,66
2599,45	462,84
2600,73	632,82
2602,00	423,93
2603,28	557,05
2604,56	417,79
2605,84	325,63
2607,11	593,91
2608,39	235,52
2609,67	499,70
2610,94	505,85
2612,22	411,64
2613,49	51,20
2614,76	444,41
2616,04	354,30
2617,31	522,23
2618,58	280,57
2619,86	280,57
2621,13	411,64
2622,40	253,95
2623,67	325,63
2624,94	73,73
2626,21	419,83
2627,48	329,72
2628,75	575,48
2630,02	421,88
2631,29	598,01
2632,56	675,83
2633,82	301,05
2635,09	342,01
2636,36	733,17
2637,63	235,52
2638,89	321,53
2640,16	313,34
2641,42	485,37
2642,69	782,32
2643,95	401,40
2645,22	368,63
2646,48	403,45
2647,74	686,07
2649,01	299,00
2650,27	378,87
2651,53	178,17
2652,79	526,33
2654,05	628,73
2655,31	409,59
2656,57	444,41
2657,83	536,57
2659,09	593,91
2660,35	360,44
2661,61	305,15
2662,87	2281,44
2664,13	636,92
2665,38	448,51
2666,64	473,08
2667,90	374,78
2669,15	528,38
2670,41	329,72
2671,67	292,86
2672,92	352,25
2674,17	620,53
2675,43	675,83
2676,68	614,39
2677,94	446,46
2679,19	446,46
2680,44	466,94
2681,69	511,99
2682,95	526,33
2684,20	620,53
2685,45	446,46
2686,70	352,25
2687,95	413,69
2689,20	540,66
2690,45	581,62
2691,70	438,27
2692,94	360,44
2694,19	661,49
2695,44	624,63
2696,69	440,31
2697,93	323,58
2699,18	708,60
2700,43	440,31
2701,67	501,75
2702,92	235,52
2704,16	534,52
2705,41	534,52
2706,65	430,07
2707,89	311,29
2709,14	337,91
2710,38	217,08
2711,62	450,55
2712,86	518,14
2714,11	460,79
2715,35	536,57
2716,59	239,61
2717,83	372,73
2719,07	147,45
2720,31	464,89
2721,55	630,77
2722,78	452,60
2724,02	473,08
2725,26	684,02
2726,50	583,67
2727,73	843,76
2728,97	681,97
2730,21	591,86
2731,44	337,91
2732,68	288,76
2733,91	456,70
2735,15	475,13
2736,38	546,81
2737,62	528,38
2738,85	151,55
2740,08	624,63
2741,32	755,70
2742,55	411,64
2743,78	401,40
2745,01	612,34
2746,24	499,70
2747,47	368,63
2748,70	446,46
2749,93	538,62
2751,16	735,22
2752,39	278,52
2753,62	577,53
2754,85	645,11
2756,08	448,51
2757,30	528,38
2758,53	245,76
2759,76	356,35
2760,98	595,96
2762,21	354,30
2763,43	393,21
2764,66	477,18
2765,88	409,59
2767,11	528,38
2768,33	448,51
2769,55	729,08
2770,78	-161,79
2772,00	387,07
2773,22	511,99
2774,44	767,99
2775,67	516,09
2776,89	477,18
2778,11	487,42
2779,33	536,57
2780,55	585,72
2781,77	438,27
2782,99	495,61
2784,20	868,34
2785,42	839,67
2786,64	745,46
2787,86	643,06
2789,07	729,08
2790,29	346,11
2791,51	526,33
2792,72	710,65
2793,94	475,13
2795,15	864,24
2796,37	516,09
2797,58	684,02
2798,80	301,05
2800,01	774,13
2801,22	772,08
2802,44	579,58
2803,65	434,17
2804,86	608,25
2806,07	862,19
2807,28	665,59
2808,49	653,30
2809,70	833,52
2810,91	583,67
2812,12	753,65
2813,33	376,83
2814,54	702,45
2815,75	868,34
2816,96	366,59
2818,16	460,79
2819,37	540,66
2820,58	833,52
2821,78	405,50
2822,99	782,32
2824,20	655,35
2825,40	507,90
2826,61	632,82
2827,81	395,26
2829,01	421,88
2830,22	788,47
2831,42	688,12
2832,62	579,58
2833,83	399,35
2835,03	667,64
2836,23	657,40
2837,43	679,93
2838,63	632,82
2839,83	798,71
2841,03	802,80
2842,23	692,21
2843,43	917,49
2844,63	829,43
2845,83	1036,27
2847,03	655,35
2848,22	483,32
2849,42	806,90
2850,62	776,18
2851,81	538,62
2853,01	563,19
2854,21	860,15
2855,40	872,43
2856,60	692,21
2857,79	1110,00
2858,99	948,21
2860,18	667,64
2861,37	929,78
2862,57	677,88
2863,76	649,21
2864,95	796,66
2866,14	645,11
2867,33	641,01
2868,52	923,63
2869,72	907,25
2870,91	817,14
2872,10	1118,19
2873,28	831,48
2874,47	757,75
2875,66	827,38
2876,85	917,49
2878,04	933,87
2879,23	716,79
2880,41	825,33
2881,60	1005,55
2882,79	759,80
2883,97	892,91
2885,16	1040,37
2886,34	1054,70
2887,53	1040,37
2888,71	905,20
2889,90	960,50
2891,08	1019,89
2892,26	1007,60
2893,45	890,87
2894,63	1011,70
2895,81	993,26
2896,99	944,11
2898,17	1196,01
2899,36	956,40
2900,54	1400,81
2901,72	907,25
2902,90	856,05
2904,08	1112,05
2905,26	1105,90
2906,43	1110,00
2907,61	1292,27
2908,79	1064,94
2909,97	1079,28
2911,14	987,12
2912,32	1107,95
2913,50	1161,20
2914,67	985,07
2915,85	1339,37
2917,02	1083,38
2918,20	1169,39
2919,37	1163,25
2920,55	1107,95
2921,72	1277,93
2922,90	1075,18
2924,07	1163,25
2925,24	1331,18
2926,41	1333,23
2927,58	1013,74
2928,76	1521,64
2929,93	1179,63
2931,10	1040,37
2932,27	1538,02
2933,44	1654,76
2934,61	1087,47
2935,78	843,76
2936,95	1259,50
2938,11	1464,30
2939,28	1370,09
2940,45	1505,26
2941,62	1615,85
2942,78	1150,96
2943,95	1329,13
2945,12	1517,54
2946,28	1718,25
2947,45	1310,70
2948,61	1292,27
2949,78	1591,27
2950,94	1591,27
2952,10	1671,14
2953,27	1540,07
2954,43	1681,38
2955,59	1355,76
2956,76	1603,56
2957,92	1662,95
2959,08	1560,55
2960,24	1409,00
2961,40	1681,38
2962,56	1875,94
2963,72	1783,78
2964,88	1806,31
2966,04	1671,14
2967,20	1720,29
2968,36	1769,44
2969,52	1529,83
2970,67	1808,36
2971,83	2013,15
2972,99	2107,36
2974,14	1748,97
2975,30	2123,74
2976,46	2211,81
2977,61	1912,80
2978,77	1933,28
2979,92	1462,25
2981,08	2095,07
2982,23	2156,51
2983,38	1961,95
2984,54	2166,75
2985,69	2154,46
2986,84	2500,57
2987,99	2394,08
2989,15	2131,94
2990,30	2160,61
2991,45	1968,10
2992,60	2193,37
2993,75	2195,42
2994,90	2088,93
2996,05	2435,03
2997,20	2416,60
2998,35	2402,27
2999,49	2471,90
3000,64	2346,97
3001,79	2533,34
3002,94	2555,86
3004,08	2441,18
3005,23	2398,17
3006,38	2512,86
3007,52	2717,65
3008,67	2373,60
3009,81	2861,01
3010,96	2848,72
3012,10	2551,77
3013,25	2779,09
3014,39	3092,43
3015,53	2877,40
3016,67	2736,09
3017,82	3014,61
3018,96	2914,26
3020,10	2580,44
3021,24	2981,84
3022,38	2783,19
3023,52	2965,46
3024,66	2979,79
3025,80	3299,28
3026,94	3315,66
3028,08	3026,90
3029,22	3383,24
3030,36	3141,58
3031,50	3383,24
3032,63	3440,59
3033,77	3270,61
3034,91	3174,35
3036,04	3545,03
3037,18	3712,97
3038,32	3846,09
3039,45	3706,82
3040,59	3712,97
3041,72	3768,26
3042,86	4198,34
3043,99	3856,33
3045,12	4313,02
3046,26	4007,87
3047,39	4165,57
3048,52	4087,75
3049,65	4290,49
3050,78	3952,58
3051,92	4564,92
3053,05	4329,41
3054,18	4382,65
3055,31	4386,75
3056,44	4601,79
3057,57	4751,29
3058,70	4661,18
3059,82	4589,50
3060,95	4712,38
3062,08	4741,05
3063,21	4081,60
3064,34	4913,08
3065,46	5011,38
3066,59	5363,63
3067,71	5132,21
3068,84	5031,86
3069,97	5232,56
3071,09	5240,75
3072,22	5283,76
3073,34	5318,57
3074,46	5693,35
3075,59	5529,52
3076,71	5296,05
3077,83	5803,94
3078,96	5535,66
3080,08	5834,66
3081,20	5949,35
3082,32	6254,50
3083,44	5826,47
3084,56	6031,27
3085,68	6240,16
3086,80	6535,07
3087,92	6250,40
3089,04	6473,63
3090,16	6741,91
3091,28	6598,56
3092,40	6528,92
3093,51	6426,53
3094,63	6524,83
3095,75	6754,20
3096,87	6483,87
3097,98	6594,46
3099,10	7292,82
3100,21	6217,63
3101,33	7038,87
3102,44	7155,60
3103,56	7165,84
3104,67	7573,39
3105,79	7339,92
3106,90	7737,23
3108,01	7446,41
3109,12	7591,82
3110,24	7849,86
3111,35	7671,69
3112,46	7911,30
3113,57	8183,68
3114,68	7876,49
3115,79	8030,09
3116,90	8624,00
3118,01	8818,55
3119,12	8621,95
3120,23	8863,61
3121,34	8523,65
3122,45	8798,07
3123,56	9398,13
3124,66	9172,85
3125,77	9009,01
3126,88	9394,03
3127,98	10215,27
3129,09	9338,74
3130,20	9774,95
3131,30	9467,76
3132,41	10016,62
3133,51	9893,74
3134,61	10116,97
3135,72	10454,88
3136,82	10141,54
3137,93	10671,97
3139,03	10884,95
3140,13	10508,13
3141,23	10723,16
3142,33	10903,39
3143,44	11067,22
3144,54	10878,81
3145,64	10950,49
3146,74	10780,51
3147,84	11691,85
3148,94	11657,04
3150,04	11302,74
3151,14	12113,74
3152,23	12285,76
3153,33	12128,07
3154,43	12734,27
3155,53	12359,49
3156,63	12652,35
3157,72	12918,59
3158,82	13051,70
3159,91	12752,70
3161,01	13387,57
3162,11	13430,58
3163,20	13207,35
3164,30	13463,35
3165,39	11974,47
3166,48	13662,00
3167,58	13422,39
3168,67	13307,70
3169,76	13881,13
3170,86	13963,05
3171,95	13991,72
3173,04	13881,13
3174,13	14122,79
3175,22	13831,98
3176,31	13829,93
3177,40	13700,91
3178,49	14675,74
3179,58	14419,75
3180,67	14159,66
3181,76	15122,20
3182,85	14974,75
3183,94	14731,04
3185,03	14989,08
3186,11	13874,99
3187,20	15048,47
3188,29	14591,78
3189,37	15118,11
3190,46	15124,25
3191,55	14886,68
3192,63	14987,04
3193,72	14685,98
3194,80	15175,45
3195,89	15333,14
3196,97	15644,43
3198,05	15089,43
3199,14	15656,72
3200,22	16135,95
3201,30	16031,50
3202,38	15892,24
3203,47	15523,60
3204,55	16199,43
3205,63	17118,97
3206,71	15339,29
3207,79	15521,56
3208,87	16258,82
3209,95	16496,39
3211,03	16885,50
3212,11	16824,06
3213,19	15699,73
3214,27	16332,55
3215,34	16258,82
3216,42	17043,20
3217,50	16224,01
3218,58	16760,58
3219,65	16627,46
3220,73	16568,07
3221,80	17112,83
3222,88	17053,44
3223,96	17118,97
3225,03	17514,23
3226,10	17334,01
3227,18	17639,15
3228,25	17112,83
3229,33	17835,76
3230,40	17002,24
3231,47	17243,90
3232,54	17424,12
3233,62	17649,39
3234,69	17544,95
3235,76	17807,09
3236,83	17958,64
3237,90	18423,53
3238,97	17770,22
3240,04	17379,06
3241,11	17719,03
3242,18	17800,94
3243,25	17909,49
3244,32	15763,22
3245,39	17671,92
3246,45	18675,43
3247,52	17833,71
3248,59	16836,35
3249,66	18005,74
3250,72	18198,25
3251,79	18640,61
3252,85	18286,31
3253,92	18314,98
3254,98	18093,80
3256,05	18278,12
3257,11	18413,29
3258,18	18243,31
3259,24	18224,87
3260,30	18511,59
3261,37	18120,43
3262,43	18241,26
3263,49	18171,63
3264,55	17807,09
3265,62	18044,65
3266,68	17770,22
3267,74	18534,12
3268,80	18194,15
3269,86	18241,26
3270,92	17688,31
3271,98	18222,83
3273,04	18527,97
3274,10	17542,90
3275,16	17905,39
3276,21	18269,93
3277,27	17280,76
3278,33	18065,13
3279,39	18134,76
3280,44	18042,60
3281,50	17991,41
3282,56	17141,50
3283,61	17168,12
3284,67	17448,69
3285,72	17811,18
3286,78	17311,48
3287,83	17952,49
3288,88	17624,82
3289,94	18099,95
3290,99	17403,64
3292,04	16221,96
3293,10	17555,19
3294,15	17657,59
3295,20	17972,97
3296,25	17657,59
3297,30	17987,31
3298,36	17395,45
3299,41	17823,47
3300,46	17624,82
3301,51	17366,78
3302,56	17669,87
3303,61	17727,22
3304,65	17655,54
3305,70	17581,81
3306,75	17420,02
3307,80	17870,58
3308,85	17897,20
3309,89	17766,13
3310,94	17759,98
3311,99	17780,46
3313,03	17581,81
3314,08	17336,06
3315,12	17491,70
3316,17	17278,71
3317,21	17745,65
3318,26	18409,19
3319,30	17221,37
3320,35	18384,62
3321,39	17936,11
3322,43	18458,34
3323,48	18243,31
3324,52	18462,44
3325,56	18054,89
3326,60	18112,24
3327,64	18038,51
3328,68	17495,80
3329,73	17917,68
3330,77	18251,50
3331,81	18546,40
3332,85	17837,81
3333,88	18032,36
3334,92	17610,48
3335,96	18220,78
3337,00	18149,10
3338,04	18536,17
3339,08	18665,19
3340,11	18194,15
3341,15	17809,14
3342,19	18274,03
3343,22	18718,43
3344,26	18212,59
3345,30	18181,87
3346,33	18558,69
3347,37	18419,43
3348,40	18466,53
3349,43	17520,37
3350,47	18433,77
3351,50	17977,07
3352,54	18134,76
3353,57	18493,16
3354,60	18312,94
3355,63	18892,51
3356,67	18730,72
3357,70	18357,99
3358,73	16379,65
3359,76	18116,33
3360,79	18681,57
3361,82	18061,04
3362,85	17817,33
3363,88	17979,12
3364,91	18038,51
3365,94	18024,17
3366,97	18061,04
3367,99	18704,10
3369,02	18454,25
3370,05	16992,00
3371,08	18183,91
3372,10	17794,80
3373,13	18120,43
3374,16	18304,74
3375,18	17716,98
3376,21	18224,87
3377,23	18601,70
3378,26	18108,14
3379,28	17983,21
3380,31	18239,21
3381,33	18786,02
3382,35	18636,52
3383,38	18056,94
3384,40	17942,25
3385,42	18118,38
3386,45	18243,31
3387,47	18382,57
3388,49	18343,66
3389,51	17850,10
3390,53	18331,37
3391,55	18163,43
3392,57	18507,49
3393,59	18345,70
3394,61	18521,83
3395,63	17854,19
3396,65	17884,91
3397,67	17395,45
3398,69	18046,70
3399,70	17637,11
3400,72	18028,27
3401,74	18693,86
3402,76	16803,58
3403,77	18034,41
3404,79	18265,83
3405,80	17993,45
3406,82	17645,30
3407,83	16887,55
3408,85	17540,85
3409,86	17809,14
3410,88	18564,84
3411,89	18247,40
3412,91	18161,39
3413,92	18077,42
3414,93	17807,09
3415,94	17755,89
3416,96	17100,54
3417,97	17348,34
3418,98	17942,25
3419,99	21427,90
3421,00	18259,69
3422,01	18044,65
3423,02	18183,91
3424,03	17262,33
3425,04	17741,55
3426,05	18048,75
3427,06	18587,36
3428,07	18839,26
3429,08	18376,42
3430,09	18073,32
3431,09	18253,55
3432,10	18300,65
3433,11	18665,19
3434,12	18556,64
3435,12	17979,12
3436,13	18052,84
3437,13	17958,64
3438,14	17424,12
3439,14	17692,40
3440,15	17456,89
3441,15	17780,46
3442,16	17325,82
3443,16	17598,20
3444,16	17415,93
3445,17	17407,73
3446,17	17272,57
3447,17	17135,35
3448,17	16867,07
3449,18	17239,80
3450,18	17215,23
3451,18	17622,77
3452,18	17825,52
3453,18	17606,39
3454,18	17528,56
3455,18	17661,68
3456,18	17534,71
3457,18	17657,59
3458,18	17241,85
3459,17	16486,15
3460,17	16697,09
3461,17	16283,40
3462,17	16711,43
3463,17	16451,33
3464,16	16369,41
3465,16	16092,94
3466,15	16181,00
3467,15	16217,86
3468,15	16326,41
3469,14	16084,75
3470,14	16602,88
3471,13	16195,34
3472,13	15863,57
3473,12	15939,34
3474,11	16023,31
3475,11	15677,20
3476,10	15646,48
3477,09	15828,75
3478,08	15779,60
3479,08	15220,50
3480,07	15054,62
3481,06	15249,18
3482,05	15005,47
3483,04	14839,58
3484,03	15124,25
3485,02	14921,50
3486,01	15286,04
3487,00	14505,76
3487,99	14040,87
3488,98	15007,52
3489,97	14266,15
3490,95	14423,84
3491,94	14429,99
3492,93	14563,11
3493,92	14171,94
3494,90	13481,78
3495,89	13537,07
3496,88	13592,37
3497,86	12986,17
3498,85	13823,79
3499,83	13668,14
3500,82	14034,73
3501,80	13901,61
3502,79	13887,28
3503,77	13371,19
3504,75	13635,38
3505,74	13754,16
3506,72	13870,89
3507,70	13426,48
3508,68	13285,17
3509,67	13057,85
3510,65	13115,19
3511,63	13469,49
3512,61	13084,47
3513,59	12808,00
3514,57	12508,99
3515,55	12476,23
3516,53	12709,69
3517,51	12986,17
3518,49	13176,63
3519,47	12599,10
3520,45	12126,02
3521,42	12046,15
3522,40	12355,40
3523,38	12447,55
3524,36	12138,31
3525,33	12308,29
3526,31	12379,97
3527,29	12248,90
3528,26	12001,10
3529,24	11800,40
3530,21	12238,66
3531,19	11732,81
3532,16	11845,45
3533,14	11499,34
3534,11	11593,55
3535,08	11765,58
3536,06	11984,71
3537,03	11804,49
3538,00	11564,88
3538,98	11378,51
3539,95	11290,45
3540,92	11034,46
3541,89	11200,34
3542,86	11300,69
3543,83	11370,32
3544,80	10428,26
3545,77	10755,93
3546,74	10559,33
3547,71	10631,01
3548,68	10532,70
3549,65	10649,44
3550,62	10538,85
3551,59	10393,44
3552,56	10878,81
3553,52	10661,73
3554,49	10487,65
3555,46	10444,64
3556,42	10299,23
3557,39	10155,88
3558,36	9557,87
3559,32	9058,17
3560,29	9873,26
3561,25	9551,73
3562,22	9543,53
3563,18	9748,33
3564,15	8687,48
3565,11	9369,46
3566,07	9289,59
3567,04	9445,23
3568,00	8961,91
3568,96	8699,77
3569,92	8927,10
3570,89	8599,42
3571,85	9060,21
3572,81	8836,99
3573,77	9037,69
3574,73	8517,50
3575,69	8812,41
3576,65	8871,80
3577,61	8304,51
3578,57	8400,77
3579,53	8730,49
3580,49	8425,34
3581,45	8417,15
3582,40	8040,33
3583,36	7397,26
3584,32	8660,86
3585,28	8023,94
3586,23	8230,79
3587,19	8202,11
3588,15	7956,36
3589,10	8005,51
3590,06	7956,36
3591,01	7798,67
3591,97	7528,33
3592,92	7714,70
3593,88	7763,85
3594,83	7696,27
3595,78	7645,07
3596,74	7464,85
3597,69	6817,69
3598,64	7575,44
3599,60	7176,08
3600,55	7223,19
3601,50	6944,66
3602,45	7374,74
3603,40	7784,33
3604,35	7040,92
3605,31	7331,73
3606,26	7165,84
3607,21	7221,14
3608,16	7010,20
3609,10	6834,07
3610,05	6832,02
3611,00	6698,91
3611,95	6895,51
3612,90	6526,88
3613,85	6498,20
3614,79	7012,24
3615,74	6565,79
3616,69	6178,72
3617,63	6518,68
3618,58	6481,82
3619,53	6305,70
3620,47	6160,29
3621,42	6297,50
3622,36	6102,95
3623,31	7511,95
3624,25	6037,41
3625,20	6526,88
3626,14	6383,52
3627,08	6098,85
3628,03	5685,16
3628,97	5896,10
3629,91	5980,07
3630,85	6092,71
3631,80	5990,31
3632,74	6291,36
3633,68	5748,65
3634,62	5695,40
3635,56	5795,75
3636,50	5517,23
3637,44	5646,25
3638,38	5818,28
3639,32	5334,96
3640,26	5218,22
3641,20	5244,85
3642,14	5441,45
3643,08	5201,84
3644,01	5382,06
3644,95	5091,25
3645,89	5294,00
3646,83	5046,20
3647,76	4949,94
3648,70	4908,98
3649,63	4865,97
3650,57	4757,43
3651,51	4915,12
3652,44	4663,22
3653,38	4736,95
3654,31	4378,56
3655,24	4440,00
3656,18	4460,48
3657,11	4593,59
3658,05	4403,13
3658,98	4245,44
3659,91	4245,44
3660,84	4071,36
3661,78	4001,73
3662,71	4065,22
3663,64	3839,94
3664,57	4054,98
3665,50	3510,22
3666,43	3577,80
3667,36	3264,46
3668,29	3397,58
3669,22	3338,19
3670,15	3131,34
3671,08	3272,65
3672,01	3205,07
3672,94	3196,88
3673,86	3309,52
3674,79	3233,74
3675,72	2631,64
3676,65	2588,63
3677,57	2781,14
3678,50	3002,32
3679,43	2660,31
3680,35	2621,40
3681,28	2701,27
3682,20	2617,30
3683,13	2578,39
3684,05	2682,84
3684,98	2504,67
3685,90	2410,46
3686,83	2338,78
3687,75	2688,98
3688,67	2109,41
3689,60	1941,47
3690,52	2367,45
3691,44	2238,43
3692,36	1583,08
3693,28	2033,63
3694,21	2271,20
3695,13	1925,09
3696,05	2037,73
3696,97	1863,65
3697,89	1976,29
3698,81	1732,58
3699,73	1873,89
3700,65	1806,31
3701,57	1621,99
3702,48	1718,25
3703,40	1740,77
3704,32	1693,67
3705,24	1929,19
3706,16	1882,08
3707,07	1621,99
3707,99	1501,16
3708,91	1691,62
3709,82	1411,05
3710,74	1183,73
3711,66	1306,60
3712,57	1265,64
3713,49	1943,52
3714,40	1126,38
3715,31	1136,62
3716,23	1562,60
3717,14	1144,81
3718,06	1310,70
3718,97	1105,90
3719,88	960,50
3720,80	1308,65
3721,71	0,00
3722,62	1288,17
3723,53	0,00
3724,44	1093,62
3725,35	0,00
3726,26	1023,98
3727,18	-14229,29
3728,09	759,80
3729,00	933,87
3729,91	888,82
3730,81	696,31
3731,72	833,52
3732,63	915,44
3733,54	786,42
3734,45	714,74
3735,36	1097,71
3736,26	1124,33
3737,17	806,90
3738,08	1015,79
3738,99	1026,03
3739,89	628,73
3740,80	788,47
3741,70	647,16
3742,61	868,34
3743,51	720,89
3744,42	716,79
3745,32	688,12
3746,23	665,59
3747,13	624,63
3748,04	886,77
3748,94	583,67
3749,84	694,26
3750,74	706,55
3751,65	655,35
3752,55	638,97
3753,45	387,07
3754,35	581,62
3755,25	645,11
3756,16	442,36
3757,06	702,45
3757,96	376,83
3758,86	636,92
3759,76	530,42
3760,66	524,28
3761,55	634,87
3762,45	675,83
3763,35	614,39
3764,25	649,21
3765,15	552,95
3766,05	1017,84
3766,94	555,00
3767,84	399,35
3768,74	481,27
3769,63	610,29
3770,53	491,51
3771,43	765,94
3772,32	688,12
3773,22	661,49
3774,11	403,45
3775,01	647,16
3775,90	614,39
3776,80	210,94
3777,69	720,89
3778,58	385,02
3779,48	632,82
3780,37	573,43
3781,26	581,62
3782,16	159,74
3783,05	1212,40
3783,94	520,18
3784,83	505,85
3785,72	528,38
3786,61	485,37
3787,50	583,67
3788,39	634,87
3789,28	366,59
3790,17	395,26
3791,06	528,38
3791,95	366,59
3792,84	526,33
3793,73	403,45
3794,62	333,82
3795,51	399,35
3796,39	423,93
3797,28	77,82
3798,17	497,66
3799,06	503,80
3799,94	389,11
3800,83	618,49
3801,71	456,70
3802,60	131,07
3803,48	444,41
3804,37	464,89
3805,25	417,79
3806,14	370,68
3807,02	137,21
3807,91	401,40
3808,79	509,94
3809,67	372,73
3810,56	739,32
3811,44	374,78
3812,32	348,15
3813,20	323,58
3814,09	581,62
3814,97	114,69
3815,85	796,66
3816,73	522,23
3817,61	354,30
3818,49	321,53
3819,37	399,35
3820,25	208,89
3821,13	448,51
3822,01	237,56
3822,89	194,56
3823,77	210,94
3824,65	479,22
3825,52	106,49
3826,40	210,94
3827,28	569,34
3828,16	538,62
3829,03	468,98
3829,91	415,74
3830,79	190,46
3831,66	628,73
3832,54	186,37
3833,41	497,66
3834,29	174,08
3835,16	516,09
3836,04	473,08
3836,91	94,21
3837,79	452,60
3838,66	342,01
3839,53	487,42
3840,41	477,18
3841,28	495,61
3842,15	360,44
3843,02	296,96
3843,90	38,91
3844,77	587,77
3845,64	116,73
3846,51	321,53
3847,38	522,23
3848,25	305,15
3849,12	219,13
3849,99	172,03
3850,86	534,52
3851,73	243,71
3852,60	180,22
3853,47	507,90
3854,34	239,61
3855,21	280,57
3856,07	282,62
3856,94	165,89
3857,81	339,96
3858,68	270,33
3859,54	380,92
3860,41	325,63
3861,28	241,66
3862,14	356,35
3863,01	544,76
3863,87	372,73
3864,74	299,00
3865,60	475,13
3866,47	491,51
3867,33	425,98
3868,19	542,71
3869,06	178,17
3869,92	309,24
3870,78	600,05
3871,65	413,69
3872,51	632,82
3873,37	-565,24
3874,23	284,67
3875,10	401,40
3875,96	94,21
3876,82	174,08
3877,68	561,14
3878,54	198,65
3879,40	215,04
3880,26	212,99
3881,12	309,24
3881,98	411,64
3882,84	362,49
3883,70	309,24
3884,55	405,50
3885,41	391,16
3886,27	667,64
3887,13	436,22
3887,99	397,31
3888,84	237,56
3889,70	542,71
3890,56	350,20
3891,41	471,03
3892,27	352,25
3893,12	212,99
3893,98	323,58
3894,83	462,84
3895,69	229,37
3896,54	307,20
3897,40	321,53
3898,25	196,61
3899,11	669,69
3899,96	161,79
3900,81	278,52
3901,66	253,95
3902,52	43,01
3903,37	413,69
3904,22	489,46
3905,07	333,82
3905,92	290,81
3906,78	385,02
3907,63	133,12
>>>>>End Processed Spectral Data<<<<<
