SpectraSuite Datei
++++++++++++++++++++++++++++++++++++
Datum: Wed Nov 28 11:40:40 CET 2018
Benutzer: Raman
Dark-Spektrum vorhanden: Ja
Referenz-Spektrum vorhanden: Nein
Zahl der probierten Teilspektren: 1
Spektrometer: USB4F00098
Integrationszeit (usec): 5500000 (USB4F00098)
Spektren Durchschnitt berechnet: 1 (USB4F00098)
Boxcar Glättung: 0 (USB4F00098)
Dunkelstromkorrektur: Nein (USB4F00098)
Puls/Lampe aktiviert: Nein (USB4F00098)
Correct for Detector Non-linearity: Nein (USB4F00098)
Streulichtkorrektur: Nein (USB4F00098)
Anzahl Pixel in verarbeitetem Spektrum: 3648
>>>>>Begin Processed Spectral Data<<<<<
-2184,52	10,24
-2181,51	10,24
-2178,50	10,24
-2175,49	0,00
-2172,49	57,34
-2169,48	-2,05
-2166,48	75,77
-2163,48	-73,73
-2160,47	126,97
-2157,47	67,58
-2154,47	18,43
-2151,48	-190,46
-2148,48	98,30
-2145,49	-36,86
-2142,49	47,10
-2139,50	-38,91
-2136,51	-28,67
-2133,52	-51,20
-2130,53	221,18
-2127,54	122,88
-2124,55	-2,05
-2121,57	53,25
-2118,58	10,24
-2115,60	106,49
-2112,62	73,73
-2109,64	108,54
-2106,66	200,70
-2103,68	190,46
-2100,70	73,73
-2097,73	225,28
-2094,75	69,63
-2091,78	30,72
-2088,81	45,06
-2085,83	53,25
-2082,86	268,28
-2079,90	243,71
-2076,93	67,58
-2073,96	86,01
-2071,00	67,58
-2068,03	94,21
-2065,07	157,69
-2062,11	157,69
-2059,15	30,72
-2056,19	186,37
-2053,23	108,54
-2050,27	131,07
-2047,32	231,42
-2044,36	143,36
-2041,41	131,07
-2038,46	75,77
-2035,51	245,76
-2032,56	92,16
-2029,61	202,75
-2026,66	57,34
-2023,72	43,01
-2020,77	26,62
-2017,83	90,11
-2014,88	221,18
-2011,94	-18,43
-2009,00	-108,54
-2006,06	2,05
-2003,13	-53,25
-2000,19	-12,29
-1997,25	8,19
-1994,32	77,82
-1991,39	124,93
-1988,45	-12,29
-1985,52	4,10
-1982,59	-4,10
-1979,67	247,80
-1976,74	-94,21
-1973,81	73,73
-1970,89	-20,48
-1967,96	120,83
-1965,04	129,02
-1962,12	79,87
-1959,20	63,49
-1956,28	4,10
-1953,36	-43,01
-1950,45	63,49
-1947,53	126,97
-1944,62	-49,15
-1941,70	-22,53
-1938,79	45,06
-1935,88	-63,49
-1932,97	-63,49
-1930,06	114,69
-1927,15	215,04
-1924,25	202,75
-1921,34	12,29
-1918,44	155,65
-1915,54	-2,05
-1912,63	47,10
-1909,73	81,92
-1906,83	153,60
-1903,94	55,30
-1901,04	59,39
-1898,14	77,82
-1895,25	55,30
-1892,36	28,67
-1889,46	-22,53
-1886,57	241,66
-1883,68	45,06
-1880,79	155,65
-1877,91	63,49
-1875,02	110,59
-1872,13	24,58
-1869,25	65,53
-1866,37	-53,25
-1863,48	106,49
-1860,60	153,60
-1857,72	260,09
-1854,84	6,14
-1851,97	75,77
-1849,09	10,24
-1846,22	65,53
-1843,34	77,82
-1840,47	-8,19
-1837,60	10,24
-1834,73	151,55
-1831,86	112,64
-1828,99	131,07
-1826,12	151,55
-1823,26	294,91
-1820,39	192,51
-1817,53	122,88
-1814,67	65,54
-1811,80	307,20
-1808,94	100,35
-1806,08	49,15
-1803,23	45,06
-1800,37	-67,58
-1797,51	200,70
-1794,66	102,40
-1791,81	149,50
-1788,95	-30,72
-1786,10	102,40
-1783,25	155,65
-1780,40	129,02
-1777,56	2,05
-1774,71	137,21
-1771,86	110,59
-1769,02	-12,29
-1766,18	28,67
-1763,33	276,48
-1760,49	65,54
-1757,65	79,87
-1754,81	45,06
-1751,98	36,86
-1749,14	135,17
-1746,30	110,59
-1743,47	36,86
-1740,64	178,17
-1737,81	133,12
-1734,97	-6,14
-1732,14	110,59
-1729,32	122,88
-1726,49	38,91
-1723,66	26,62
-1720,84	94,21
-1718,01	120,83
-1715,19	65,53
-1712,37	22,53
-1709,55	75,77
-1706,73	88,06
-1703,91	112,64
-1701,09	102,40
-1698,27	63,49
-1695,46	122,88
-1692,65	6,14
-1689,83	51,20
-1687,02	67,58
-1684,21	-18,43
-1681,40	157,69
-1678,59	83,97
-1675,78	139,26
-1672,98	20,48
-1670,17	174,08
-1667,37	204,80
-1664,56	110,59
-1661,76	59,39
-1658,96	96,25
-1656,16	159,74
-1653,36	135,17
-1650,57	155,65
-1647,77	47,10
-1644,97	61,44
-1642,18	110,59
-1639,39	24,58
-1636,60	118,78
-1633,80	92,16
-1631,01	-16,38
-1628,23	102,40
-1625,44	22,53
-1622,65	106,49
-1619,87	133,12
-1617,08	110,59
-1614,30	86,01
-1611,52	88,06
-1608,74	30,72
-1605,96	43,01
-1603,18	77,82
-1600,40	163,84
-1597,62	241,66
-1594,85	102,40
-1592,07	137,21
-1589,30	38,91
-1586,53	-6,14
-1583,76	268,28
-1580,99	98,30
-1578,22	92,16
-1575,45	172,03
-1572,68	88,06
-1569,92	45,06
-1567,15	49,15
-1564,39	0,00
-1561,63	108,54
-1558,86	67,58
-1556,10	178,17
-1553,34	131,07
-1550,59	131,07
-1547,83	92,16
-1545,07	-12,29
-1542,32	-16,38
-1539,56	163,84
-1536,81	-8,19
-1534,06	98,30
-1531,31	120,83
-1528,56	147,45
-1525,81	6,14
-1523,06	104,45
-1520,32	468,98
-1517,57	-12,29
-1514,83	194,56
-1512,09	-10,24
-1509,34	28,67
-1506,60	116,73
-1503,86	176,13
-1501,12	94,21
-1498,39	-83,97
-1495,65	116,73
-1492,91	59,39
-1490,18	229,37
-1487,45	63,49
-1484,71	-14,34
-1481,98	92,16
-1479,25	-49,15
-1476,52	43,01
-1473,80	131,07
-1471,07	149,50
-1468,34	59,39
-1465,62	24,58
-1462,89	-34,82
-1460,17	141,31
-1457,45	106,49
-1454,73	172,03
-1452,01	260,09
-1449,29	141,31
-1446,57	53,25
-1443,86	16,38
-1441,14	-176,13
-1438,43	112,64
-1435,71	38,91
-1433,00	65,53
-1430,29	102,40
-1427,58	75,77
-1424,87	176,13
-1422,16	59,39
-1419,46	204,80
-1416,75	-2,05
-1414,05	63,49
-1411,34	34,82
-1408,64	77,82
-1405,94	131,07
-1403,24	-4,10
-1400,54	253,95
-1397,84	137,21
-1395,14	79,87
-1392,45	268,28
-1389,75	4,10
-1387,06	102,40
-1384,36	6,14
-1381,67	106,49
-1378,98	323,58
-1376,29	241,66
-1373,60	108,54
-1370,91	172,03
-1368,23	135,17
-1365,54	-63,49
-1362,86	110,59
-1360,17	43,01
-1357,49	77,82
-1354,81	145,41
-1352,13	286,72
-1349,45	206,84
-1346,77	-79,87
-1344,09	143,36
-1341,42	137,21
-1338,74	169,98
-1336,07	83,97
-1333,39	-124,93
-1330,72	292,86
-1328,05	-20,48
-1325,38	45,06
-1322,71	94,21
-1320,04	126,97
-1317,37	59,39
-1314,71	14,34
-1312,04	178,17
-1309,38	163,84
-1306,72	120,83
-1304,05	219,13
-1301,39	69,63
-1298,73	36,86
-1296,08	108,54
-1293,42	-18,43
-1290,76	86,01
-1288,10	40,96
-1285,45	59,39
-1282,80	145,41
-1280,14	159,74
-1277,49	47,10
-1274,84	63,49
-1272,19	133,12
-1269,54	153,60
-1266,90	108,54
-1264,25	12,29
-1261,60	208,89
-1258,96	-36,86
-1256,32	94,21
-1253,67	-81,92
-1251,03	264,19
-1248,39	34,82
-1245,75	-22,53
-1243,11	86,01
-1240,48	57,34
-1237,84	75,77
-1235,20	36,86
-1232,57	106,49
-1229,94	57,34
-1227,31	-102,40
-1224,67	77,82
-1222,04	147,45
-1219,41	65,53
-1216,79	51,20
-1214,16	-22,53
-1211,53	157,69
-1208,91	-10,24
-1206,28	94,21
-1203,66	86,01
-1201,04	116,73
-1198,42	34,82
-1195,80	122,88
-1193,18	43,01
-1190,56	147,45
-1187,94	112,64
-1185,33	141,31
-1182,71	182,27
-1180,10	135,17
-1177,49	43,01
-1174,87	-20,48
-1172,26	49,15
-1169,65	34,82
-1167,04	106,49
-1164,44	-10,24
-1161,83	215,04
-1159,22	49,15
-1156,62	88,06
-1154,01	59,39
-1151,41	32,77
-1148,81	206,84
-1146,21	-43,01
-1143,61	28,67
-1141,01	28,67
-1138,41	186,37
-1135,81	112,64
-1133,22	157,69
-1130,62	96,25
-1128,03	59,39
-1125,44	51,20
-1122,84	157,69
-1120,25	67,58
-1117,66	143,36
-1115,07	176,13
-1112,49	-88,06
-1109,90	114,69
-1107,31	81,92
-1104,73	186,37
-1102,14	65,53
-1099,56	36,86
-1096,98	100,35
-1094,40	169,98
-1091,82	6,14
-1089,24	45,06
-1086,66	-79,87
-1084,08	83,97
-1081,51	96,25
-1078,93	194,56
-1076,36	43,01
-1073,79	57,34
-1071,21	124,93
-1068,64	32,77
-1066,07	-151,55
-1063,50	268,28
-1060,93	6,14
-1058,37	-36,86
-1055,80	184,32
-1053,24	63,49
-1050,67	131,07
-1048,11	-2,05
-1045,55	178,17
-1042,99	69,63
-1040,42	49,15
-1037,87	94,21
-1035,31	32,77
-1032,75	79,87
-1030,19	53,25
-1027,64	172,03
-1025,08	94,21
-1022,53	57,34
-1019,98	139,26
-1017,43	-10,24
-1014,88	-61,44
-1012,33	28,67
-1009,78	61,44
-1007,23	122,88
-1004,68	61,44
-1002,14	200,70
-999,59	61,44
-997,05	129,02
-994,51	71,68
-991,96	143,36
-989,42	57,34
-986,88	18,43
-984,34	139,26
-981,81	38,91
-979,27	-161,79
-976,73	49,15
-974,20	118,78
-971,66	159,74
-969,13	178,17
-966,60	-14,34
-964,07	40,96
-961,54	135,17
-959,01	176,13
-956,48	-180,22
-953,95	139,26
-951,43	30,72
-948,90	194,56
-946,38	163,84
-943,85	114,69
-941,33	198,65
-938,81	108,54
-936,29	135,17
-933,77	202,75
-931,25	38,91
-928,73	86,01
-926,22	-153,60
-923,70	30,72
-921,19	-20,48
-918,67	147,45
-916,16	172,03
-913,65	227,32
-911,14	137,21
-908,63	92,16
-906,12	112,64
-903,61	-59,39
-901,10	86,01
-898,59	147,45
-896,09	71,68
-893,59	83,97
-891,08	83,97
-888,58	79,87
-886,08	-4,10
-883,58	26,62
-881,08	-18,43
-878,58	30,72
-876,08	-8,19
-873,58	16,38
-871,09	243,71
-868,59	26,62
-866,10	131,07
-863,61	43,01
-861,12	126,97
-858,62	124,93
-856,13	81,92
-853,64	2,05
-851,16	-43,01
-848,67	6,14
-846,18	61,44
-843,70	122,88
-841,21	49,15
-838,73	165,89
-836,25	73,73
-833,77	75,77
-831,28	186,37
-828,81	59,39
-826,33	108,54
-823,85	-36,86
-821,37	28,67
-818,90	-43,01
-816,42	210,94
-813,95	67,58
-811,47	167,93
-809,00	47,10
-806,53	10,24
-804,06	71,68
-801,59	67,58
-799,12	-34,82
-796,65	14,34
-794,19	174,08
-791,72	157,69
-789,26	114,69
-786,79	176,13
-784,33	102,40
-781,87	75,77
-779,41	67,58
-776,95	92,16
-774,49	88,06
-772,03	-92,16
-769,57	4,10
-767,12	104,45
-764,66	143,36
-762,21	161,79
-759,75	18,43
-757,30	135,17
-754,85	227,32
-752,40	204,80
-749,95	-4,10
-747,50	-10,24
-745,05	49,15
-742,60	18,43
-740,16	-32,77
-737,71	16,38
-735,27	106,49
-732,82	71,68
-730,38	65,53
-727,94	102,40
-725,50	96,25
-723,06	71,68
-720,62	157,69
-718,18	86,01
-715,74	79,87
-713,31	108,54
-710,87	43,01
-708,44	63,49
-706,01	116,73
-703,57	141,31
-701,14	94,21
-698,71	45,06
-696,28	190,46
-693,85	227,32
-691,42	-4,10
-689,00	133,12
-686,57	118,78
-684,15	43,01
-681,72	-4,10
-679,30	94,21
-676,88	137,21
-674,45	10,24
-672,03	212,99
-669,61	135,17
-667,20	-163,84
-664,78	126,97
-662,36	22,53
-659,94	180,22
-657,53	12,29
-655,12	55,30
-652,70	86,01
-650,29	172,03
-647,88	116,73
-645,47	145,41
-643,06	212,99
-640,65	194,56
-638,24	2,05
-635,83	114,69
-633,43	131,07
-631,02	36,86
-628,62	-36,86
-626,22	67,58
-623,81	-4,10
-621,41	106,49
-619,01	65,53
-616,61	67,58
-614,21	98,30
-611,81	256,00
-609,42	49,15
-607,02	61,44
-604,63	112,64
-602,23	98,30
-599,84	18,43
-597,45	8,19
-595,05	47,10
-592,66	110,59
-590,27	190,46
-587,88	122,88
-585,50	233,47
-583,11	116,73
-580,72	149,50
-578,34	38,91
-575,95	186,37
-573,57	-43,01
-571,19	88,06
-568,80	139,26
-566,42	108,54
-564,04	141,31
-561,66	151,55
-559,29	149,50
-556,91	247,80
-554,53	159,74
-552,16	8,19
-549,78	-106,49
-547,41	149,50
-545,03	63,49
-542,66	251,90
-540,29	147,45
-537,92	67,58
-535,55	4,10
-533,18	227,32
-530,81	104,45
-528,45	57,34
-526,08	178,17
-523,72	75,77
-521,35	51,20
-518,99	210,94
-516,63	163,84
-514,27	14,34
-511,90	124,93
-509,54	161,79
-507,19	55,30
-504,83	180,22
-502,47	0,00
-500,11	135,17
-497,76	14,34
-495,40	57,34
-493,05	75,77
-490,70	96,25
-488,35	106,49
-486,00	155,65
-483,65	145,41
-481,30	165,89
-478,95	131,07
-476,60	90,11
-474,25	190,46
-471,91	135,17
-469,56	47,10
-467,22	116,73
-464,88	-47,10
-462,53	104,45
-460,19	133,12
-457,85	219,13
-455,51	-4,10
-453,17	28,67
-450,84	98,30
-448,50	114,69
-446,16	129,02
-443,83	45,06
-441,49	-38,91
-439,16	75,77
-436,83	67,58
-434,50	157,69
-432,16	-53,25
-429,83	28,67
-427,50	94,21
-425,18	81,92
-422,85	178,17
-420,52	114,69
-418,20	75,77
-415,87	86,01
-413,55	176,13
-411,22	92,16
-408,90	118,78
-406,58	102,40
-404,26	28,67
-401,94	36,86
-399,62	-92,16
-397,30	10,24
-394,99	137,21
-392,67	10,24
-390,35	102,40
-388,04	38,91
-385,73	40,96
-383,41	24,58
-381,10	137,21
-378,79	151,55
-376,48	102,40
-374,17	-81,92
-371,86	36,86
-369,55	-49,15
-367,25	-6,14
-364,94	-120,83
-362,64	163,84
-360,33	-55,30
-358,03	190,46
-355,73	124,93
-353,42	90,11
-351,12	188,41
-348,82	51,20
-346,52	73,73
-344,23	129,02
-341,93	51,20
-339,63	126,97
-337,34	135,17
-335,04	161,79
-332,75	43,01
-330,45	73,73
-328,16	47,10
-325,87	94,21
-323,58	122,88
-321,29	-4,10
-319,00	47,10
-316,71	143,36
-314,42	75,77
-312,14	59,39
-309,85	-16,38
-307,57	94,21
-305,28	126,97
-303,00	124,93
-300,72	6,14
-298,44	124,93
-296,16	100,35
-293,88	67,58
-291,60	98,30
-289,32	-51,20
-287,04	83,97
-284,77	-14,34
-282,49	-32,77
-280,22	131,07
-277,94	122,88
-275,67	65,53
-273,40	10,24
-271,13	100,35
-268,85	73,73
-266,59	104,45
-264,32	137,21
-262,05	43,01
-259,78	96,25
-257,51	59,39
-255,25	75,77
-252,98	73,73
-250,72	161,79
-248,46	-4,10
-246,20	133,12
-243,93	94,21
-241,67	102,40
-239,41	57,34
-237,16	4,10
-234,90	26,62
-232,64	61,44
-230,38	40,96
-228,13	100,35
-225,87	34,82
-223,62	186,37
-221,37	108,54
-219,11	118,78
-216,86	26,62
-214,61	-24,58
-212,36	79,87
-210,11	112,64
-207,87	90,11
-205,62	57,34
-203,37	104,45
-201,13	59,39
-198,88	75,77
-196,64	-18,43
-194,39	75,77
-192,15	124,93
-189,91	221,18
-187,67	104,45
-185,43	169,98
-183,19	135,17
-180,95	182,27
-178,72	61,44
-176,48	-38,91
-174,24	92,16
-172,01	6,14
-169,77	61,44
-167,54	112,64
-165,31	59,39
-163,08	-32,77
-160,85	47,10
-158,62	135,17
-156,39	131,07
-154,16	120,83
-151,93	45,06
-149,70	147,45
-147,48	4,10
-145,25	151,55
-143,03	258,04
-140,81	-57,34
-138,58	96,25
-136,36	260,09
-134,14	258,04
-131,92	210,94
-129,70	61,44
-127,48	161,79
-125,26	141,31
-123,05	133,12
-120,83	-36,86
-118,62	198,65
-116,40	159,74
-114,19	102,40
-111,97	135,17
-109,76	49,15
-107,55	149,50
-105,34	114,69
-103,13	147,45
-100,92	6,14
-98,71	176,13
-96,51	196,61
-94,30	161,79
-92,09	135,17
-89,89	272,38
-87,69	131,07
-85,48	147,45
-83,28	88,06
-81,08	161,79
-78,88	133,12
-76,68	28,67
-74,48	206,84
-72,28	256,00
-70,08	251,90
-67,88	219,13
-65,69	305,15
-63,49	223,23
-61,30	167,93
-59,11	178,17
-56,91	184,32
-54,72	266,24
-52,53	270,33
-50,34	286,72
-48,15	241,66
-45,96	301,05
-43,77	251,90
-41,59	270,33
-39,40	329,72
-37,21	270,33
-35,03	274,43
-32,84	391,16
-30,66	540,66
-28,48	557,05
-26,30	835,57
-24,12	1153,01
-21,94	2011,11
-19,76	4294,59
-17,58	8720,25
-15,40	16193,29
-13,22	30686,76
-11,05	41901,44
-8,87	44725,59
-6,70	50570,49
-4,52	59974,76
-2,35	55426,23
-0,18	55678,13
1,99	51451,12
4,16	46935,35
6,33	44078,43
8,50	36021,72
10,67	30494,25
12,84	27594,33
15,00	23066,27
17,17	18919,14
19,33	14882,59
21,50	11571,02
23,66	9447,28
25,83	8021,89
27,99	5816,23
30,15	4169,66
32,31	2535,39
34,47	1656,81
36,63	1161,20
38,79	813,04
40,94	473,08
43,10	559,10
45,25	430,07
47,41	411,64
49,56	346,11
51,72	190,46
53,87	264,19
56,02	354,30
58,17	301,05
60,32	399,35
62,47	167,93
64,62	159,74
66,77	135,17
68,92	176,13
71,06	79,87
73,21	45,06
75,35	79,87
77,50	184,32
79,64	71,68
81,78	188,41
83,92	71,68
86,06	151,55
88,20	161,79
90,34	122,88
92,48	188,41
94,62	311,29
96,76	182,27
98,89	276,48
101,03	182,27
103,16	239,61
105,30	73,73
107,43	163,84
109,56	112,64
111,69	96,25
113,82	206,84
115,95	174,08
118,08	217,08
120,21	233,47
122,34	204,80
124,47	268,28
126,59	245,76
128,72	475,13
130,84	393,21
132,97	378,87
135,09	604,15
137,21	552,95
139,33	501,75
141,45	745,46
143,57	688,12
145,69	612,34
147,81	862,19
149,93	798,71
152,05	976,88
154,16	956,40
156,28	985,07
158,39	915,44
160,51	1185,77
162,62	1019,89
164,73	1236,97
166,85	1234,93
168,96	1265,64
171,07	1255,40
173,18	1191,92
175,28	1376,24
177,39	1435,63
179,50	1488,87
181,61	1279,98
183,71	1171,44
185,82	1265,64
187,92	1488,87
190,02	1363,95
192,13	1470,44
194,23	1353,71
196,33	1382,38
198,43	1331,18
200,53	1318,89
202,63	1476,59
204,72	1470,44
206,82	1286,12
208,92	1228,78
211,01	1345,52
213,11	1226,73
215,20	1224,69
217,30	1089,52
219,39	1230,83
221,48	1220,59
223,57	1155,05
225,66	1167,34
227,75	1103,86
229,84	1101,81
231,93	964,59
234,02	1009,65
236,10	841,72
238,19	1095,66
240,28	1064,94
242,36	1042,42
244,44	1058,80
246,53	962,55
248,61	1091,57
250,69	933,87
252,77	884,72
254,85	790,52
256,93	880,63
259,01	933,87
261,09	782,32
263,16	841,72
265,24	733,17
267,32	876,53
269,39	796,66
271,46	837,62
273,54	847,86
275,61	833,52
277,68	716,79
279,75	802,80
281,82	675,83
283,89	598,01
285,96	727,03
288,03	788,47
290,10	704,50
292,16	616,44
294,23	716,79
296,29	796,66
298,36	507,90
300,42	698,36
302,49	671,73
304,55	729,08
306,61	522,23
308,67	413,69
310,73	706,55
312,79	516,09
314,85	495,61
316,90	675,83
318,96	647,16
321,02	634,87
323,07	624,63
325,13	743,41
327,18	491,51
329,24	585,72
331,29	579,58
333,34	561,14
335,39	565,24
337,44	555,00
339,49	501,75
341,54	598,01
343,59	614,39
345,64	591,86
347,68	436,22
349,73	501,75
351,77	518,14
353,82	569,34
355,86	778,23
357,90	458,74
359,95	440,31
361,99	577,53
364,03	493,56
366,07	694,26
368,11	606,20
370,15	505,85
372,19	571,38
374,22	458,74
376,26	534,52
378,29	456,70
380,33	565,24
382,36	647,16
384,40	421,88
386,43	382,97
388,46	378,87
390,49	534,52
392,52	522,23
394,55	577,53
396,58	530,42
398,61	421,88
400,64	557,05
402,67	501,75
404,69	563,19
406,72	536,57
408,74	647,16
410,77	575,48
412,79	444,41
414,81	561,14
416,84	464,89
418,86	485,37
420,88	409,59
422,90	380,92
424,92	505,85
426,94	532,47
428,95	475,13
430,97	514,04
432,99	409,59
435,00	643,06
437,02	448,51
439,03	509,94
441,04	477,18
443,06	395,26
445,07	593,91
447,08	532,47
449,09	374,78
451,10	514,04
453,11	460,79
455,12	573,43
457,13	374,78
459,13	411,64
461,14	442,36
463,14	444,41
465,15	393,21
467,15	247,80
469,16	550,90
471,16	387,07
473,16	591,86
475,16	511,99
477,16	446,46
479,16	477,18
481,16	370,68
483,16	514,04
485,16	382,97
487,15	460,79
489,15	430,07
491,15	280,57
493,14	376,83
495,14	393,21
497,13	346,11
499,12	579,58
501,11	387,07
503,11	458,75
505,10	468,98
507,09	466,94
509,07	360,44
511,06	274,43
513,05	303,10
515,04	391,16
517,02	563,19
519,01	376,83
521,00	495,61
522,98	370,68
524,96	356,35
526,95	329,72
528,93	368,63
530,91	391,16
532,89	290,81
534,87	350,20
536,85	303,10
538,83	319,48
540,81	364,54
542,78	290,81
544,76	481,27
546,74	448,51
548,71	253,95
550,69	323,58
552,66	468,98
554,63	360,44
556,60	536,57
558,58	370,68
560,55	354,30
562,52	364,54
564,49	387,07
566,46	421,88
568,42	409,59
570,39	364,54
572,36	323,58
574,32	444,41
576,29	440,31
578,25	362,49
580,22	417,79
582,18	344,06
584,14	378,87
586,11	434,17
588,07	385,02
590,03	362,49
591,99	256,00
593,95	290,81
595,90	415,74
597,86	403,45
599,82	305,15
601,78	274,43
603,73	425,98
605,69	272,38
607,64	194,56
609,59	331,77
611,55	280,57
613,50	370,68
615,45	331,77
617,40	276,48
619,35	417,79
621,30	352,25
623,25	333,82
625,20	204,80
627,15	274,43
629,09	288,76
631,04	368,63
632,98	229,37
634,93	296,96
636,87	331,77
638,82	301,05
640,76	266,24
642,70	313,34
644,64	407,55
646,58	241,66
648,52	331,77
650,46	192,51
652,40	200,70
654,34	235,52
656,27	333,82
658,21	296,96
660,15	227,32
662,08	167,93
664,02	319,48
665,95	335,87
667,88	329,72
669,82	165,89
671,75	182,27
673,68	178,17
675,61	288,76
677,54	309,24
679,47	227,32
681,40	174,08
683,32	223,23
685,25	339,96
687,18	147,45
689,10	208,89
691,03	169,98
692,95	239,61
694,87	223,23
696,80	282,62
698,72	120,83
700,64	313,34
702,56	186,37
704,48	354,30
706,40	235,52
708,32	260,09
710,24	331,77
712,16	208,89
714,07	223,23
715,99	260,09
717,90	98,30
719,82	221,18
721,73	276,48
723,65	276,48
725,56	204,80
727,47	212,99
729,38	329,72
731,29	133,12
733,20	122,88
735,11	184,32
737,02	188,41
738,93	155,65
740,84	126,97
742,74	116,73
744,65	124,93
746,55	143,36
748,46	354,30
750,36	221,18
752,27	133,12
754,17	155,65
756,07	221,18
757,97	223,23
759,87	198,65
761,77	196,61
763,67	190,46
765,57	325,63
767,47	133,12
769,37	210,94
771,26	219,13
773,16	270,33
775,06	284,67
776,95	225,28
778,84	342,01
780,74	131,07
782,63	124,93
784,52	253,95
786,41	368,63
788,30	366,59
790,19	251,90
792,08	333,82
793,97	135,17
795,86	143,36
797,75	278,52
799,63	251,90
801,52	235,52
803,41	182,27
805,29	155,65
807,18	202,75
809,06	174,08
810,94	141,31
812,82	509,94
814,70	202,75
816,59	292,86
818,47	75,77
820,35	286,72
822,22	198,65
824,10	315,39
825,98	245,76
827,86	262,14
829,73	104,45
831,61	153,60
833,48	256,00
835,36	172,03
837,23	122,88
839,10	243,71
840,98	51,20
842,85	108,54
844,72	114,69
846,59	272,38
848,46	202,75
850,33	124,93
852,20	18,43
854,06	272,38
855,93	151,55
857,80	307,20
859,66	14,34
861,53	145,41
863,39	108,54
865,26	151,55
867,12	245,76
868,98	219,13
870,84	198,65
872,71	294,91
874,57	186,37
876,43	65,54
878,29	135,17
880,14	135,17
882,00	292,86
883,86	409,59
885,72	90,11
887,57	217,08
889,43	344,06
891,28	188,41
893,14	169,98
894,99	303,10
896,84	233,47
898,69	192,51
900,55	417,79
902,40	258,04
904,25	182,27
906,10	137,21
907,95	350,20
909,79	321,53
911,64	169,98
913,49	313,34
915,34	184,32
917,18	342,01
919,03	233,47
920,87	217,08
922,71	188,41
924,56	186,37
926,40	215,04
928,24	161,79
930,08	155,65
931,92	190,46
933,76	247,80
935,60	251,90
937,44	286,72
939,28	196,61
941,12	290,81
942,95	188,41
944,79	253,95
946,62	262,14
948,46	147,45
950,29	366,59
952,13	106,49
953,96	215,04
955,79	81,92
957,62	126,97
959,46	198,65
961,29	182,27
963,12	167,93
964,94	182,27
966,77	245,76
968,60	180,22
970,43	149,50
972,25	174,08
974,08	176,13
975,91	233,47
977,73	235,52
979,55	342,01
981,38	112,64
983,20	61,44
985,02	153,60
986,84	145,41
988,66	301,05
990,49	71,68
992,30	198,65
994,12	210,94
995,94	262,14
997,76	135,17
999,58	151,55
1001,39	153,60
1003,21	184,32
1005,02	208,89
1006,84	137,21
1008,65	249,85
1010,47	2,05
1012,28	258,04
1014,09	137,21
1015,90	258,04
1017,71	155,65
1019,52	145,41
1021,33	235,52
1023,14	114,69
1024,95	108,54
1026,76	278,52
1028,56	268,28
1030,37	-65,53
1032,18	204,80
1033,98	374,78
1035,79	202,75
1037,59	98,30
1039,39	321,53
1041,20	176,13
1043,00	133,12
1044,80	253,95
1046,60	137,21
1048,40	217,08
1050,20	206,84
1052,00	153,60
1053,80	356,35
1055,59	212,99
1057,39	256,00
1059,19	280,57
1060,98	288,76
1062,78	268,28
1064,57	225,28
1066,37	122,88
1068,16	165,89
1069,95	260,09
1071,75	229,37
1073,54	92,16
1075,33	77,82
1077,12	223,23
1078,91	311,29
1080,70	239,61
1082,48	198,65
1084,27	206,84
1086,06	256,00
1087,85	210,94
1089,63	245,76
1091,42	196,61
1093,20	165,89
1094,99	194,56
1096,77	276,48
1098,55	108,54
1100,33	153,60
1102,12	276,48
1103,90	159,74
1105,68	161,79
1107,46	264,19
1109,24	149,50
1111,01	131,07
1112,79	266,24
1114,57	235,52
1116,35	159,74
1118,12	98,30
1119,90	196,60
1121,67	182,27
1123,45	258,04
1125,22	200,70
1126,99	235,52
1128,77	200,70
1130,54	288,76
1132,31	272,38
1134,08	233,47
1135,85	188,41
1137,62	260,09
1139,39	227,32
1141,15	292,86
1142,92	339,96
1144,69	221,18
1146,46	319,48
1148,22	307,20
1149,99	397,31
1151,75	344,06
1153,51	186,37
1155,28	208,89
1157,04	227,32
1158,80	346,11
1160,56	286,72
1162,32	231,42
1164,08	233,47
1165,84	335,87
1167,60	153,60
1169,36	348,15
1171,12	256,00
1172,88	493,56
1174,63	108,54
1176,39	401,40
1178,14	350,20
1179,90	272,38
1181,65	276,48
1183,41	364,54
1185,16	352,25
1186,91	481,27
1188,66	358,39
1190,41	219,13
1192,16	335,87
1193,91	401,40
1195,66	530,42
1197,41	342,01
1199,16	477,18
1200,91	446,46
1202,66	475,13
1204,40	489,46
1206,15	423,93
1207,89	696,31
1209,64	288,76
1211,38	313,34
1213,12	446,46
1214,87	618,49
1216,61	397,31
1218,35	460,79
1220,09	315,39
1221,83	395,26
1223,57	360,44
1225,31	458,75
1227,05	374,78
1228,79	247,80
1230,52	335,87
1232,26	362,49
1234,00	251,90
1235,73	290,81
1237,47	190,46
1239,20	219,13
1240,94	331,77
1242,67	256,00
1244,40	262,14
1246,13	296,96
1247,86	276,48
1249,60	317,44
1251,33	333,82
1253,06	122,88
1254,78	116,73
1256,51	145,41
1258,24	239,61
1259,97	194,56
1261,69	366,59
1263,42	327,68
1265,15	286,72
1266,87	139,26
1268,59	165,89
1270,32	94,21
1272,04	126,97
1273,76	288,76
1275,49	190,46
1277,21	221,18
1278,93	227,32
1280,65	229,37
1282,37	198,65
1284,09	34,82
1285,81	178,17
1287,52	100,35
1289,24	100,35
1290,96	131,07
1292,67	188,41
1294,39	219,13
1296,10	223,23
1297,82	299,00
1299,53	67,58
1301,24	151,55
1302,96	182,27
1304,67	174,08
1306,38	317,44
1308,09	258,04
1309,80	36,86
1311,51	135,17
1313,22	147,45
1314,93	272,38
1316,64	258,04
1318,34	102,40
1320,05	114,69
1321,75	61,44
1323,46	157,69
1325,17	79,87
1326,87	172,03
1328,57	169,98
1330,28	69,63
1331,98	151,55
1333,68	172,03
1335,38	157,69
1337,08	157,69
1338,78	165,89
1340,48	180,22
1342,18	270,33
1343,88	260,09
1345,58	110,59
1347,28	139,26
1348,97	96,25
1350,67	176,13
1352,36	8,19
1354,06	92,16
1355,75	139,26
1357,45	118,78
1359,14	67,58
1360,83	159,74
1362,53	45,06
1364,22	151,55
1365,91	32,77
1367,60	217,08
1369,29	141,31
1370,98	65,53
1372,67	108,54
1374,35	165,89
1376,04	239,61
1377,73	135,17
1379,41	-110,59
1381,10	94,21
1382,79	135,17
1384,47	118,78
1386,15	174,08
1387,84	106,49
1389,52	71,68
1391,20	206,84
1392,88	143,36
1394,57	129,02
1396,25	2,05
1397,93	219,13
1399,61	83,97
1401,28	129,02
1402,96	235,52
1404,64	141,31
1406,32	38,91
1407,99	182,27
1409,67	110,59
1411,35	116,73
1413,02	174,08
1414,70	151,55
1416,37	178,17
1418,04	57,34
1419,71	202,75
1421,39	100,35
1423,06	112,64
1424,73	112,64
1426,40	137,21
1428,07	219,13
1429,74	137,21
1431,41	94,21
1433,08	145,41
1434,74	212,99
1436,41	14,34
1438,08	149,50
1439,74	116,73
1441,41	221,18
1443,07	86,01
1444,74	147,45
1446,40	57,34
1448,06	92,16
1449,72	92,16
1451,39	102,40
1453,05	237,56
1454,71	159,74
1456,37	235,52
1458,03	94,21
1459,69	114,69
1461,35	135,17
1463,00	192,51
1464,66	137,21
1466,32	73,73
1467,97	217,08
1469,63	167,93
1471,28	112,64
1472,94	53,25
1474,59	141,31
1476,25	-2,05
1477,90	155,65
1479,55	147,45
1481,20	159,74
1482,85	239,61
1484,50	69,63
1486,15	43,01
1487,80	210,94
1489,45	223,23
1491,10	126,97
1492,75	174,08
1494,40	227,32
1496,04	194,56
1497,69	106,49
1499,33	262,14
1500,98	202,75
1502,62	167,93
1504,27	118,78
1505,91	249,85
1507,55	215,04
1509,19	245,76
1510,84	266,24
1512,48	210,94
1514,12	57,34
1515,76	149,50
1517,40	131,07
1519,04	227,32
1520,67	253,95
1522,31	-14,34
1523,95	139,26
1525,59	120,83
1527,22	104,45
1528,86	210,94
1530,49	176,13
1532,13	169,98
1533,76	159,74
1535,39	262,14
1537,03	28,67
1538,66	143,36
1540,29	180,22
1541,92	172,03
1543,55	94,21
1545,18	79,87
1546,81	188,41
1548,44	266,24
1550,07	198,65
1551,70	116,73
1553,32	159,74
1554,95	190,46
1556,58	137,21
1558,20	124,93
1559,83	153,60
1561,45	114,69
1563,07	217,08
1564,70	116,73
1566,32	217,08
1567,94	163,84
1569,56	292,86
1571,19	114,69
1572,81	172,03
1574,43	165,89
1576,05	26,62
1577,66	184,32
1579,28	217,08
1580,90	172,03
1582,52	204,80
1584,14	151,55
1585,75	196,61
1587,37	288,76
1588,98	231,42
1590,60	227,32
1592,21	14,34
1593,82	120,83
1595,44	81,92
1597,05	198,65
1598,66	200,70
1600,27	8,19
1601,88	114,69
1603,49	4153,28
1605,10	61,44
1606,71	104,45
1608,32	157,69
1609,93	206,84
1611,54	75,77
1613,14	120,83
1614,75	196,61
1616,36	126,97
1617,96	184,32
1619,57	96,25
1621,17	153,60
1622,77	79,87
1624,38	118,78
1625,98	137,21
1627,58	131,07
1629,18	184,32
1630,78	126,97
1632,38	-49,15
1633,98	227,32
1635,58	124,93
1637,18	135,17
1638,78	94,21
1640,38	155,65
1641,98	262,14
1643,57	86,01
1645,17	174,08
1646,76	186,37
1648,36	61,44
1649,95	116,73
1651,55	34,82
1653,14	256,00
1654,73	229,37
1656,33	-20,48
1657,92	110,59
1659,51	53,25
1661,10	182,27
1662,69	176,13
1664,28	239,61
1665,87	83,97
1667,46	155,65
1669,05	69,63
1670,63	163,84
1672,22	73,73
1673,81	284,67
1675,39	180,22
1676,98	83,97
1678,56	180,22
1680,15	67,58
1681,73	108,54
1683,31	256,00
1684,90	90,11
1686,48	215,04
1688,06	120,83
1689,64	215,04
1691,22	212,99
1692,80	184,32
1694,38	57,34
1695,96	-53,25
1697,54	75,77
1699,12	178,17
1700,69	112,64
1702,27	75,77
1703,85	223,23
1705,42	40,96
1707,00	47,10
1708,57	26,62
1710,15	180,22
1711,72	69,63
1713,29	137,21
1714,87	75,77
1716,44	219,13
1718,01	337,91
1719,58	10,24
1721,15	124,93
1722,72	200,70
1724,29	153,60
1725,86	106,49
1727,43	194,56
1729,00	133,12
1730,56	192,51
1732,13	206,84
1733,70	231,42
1735,26	8,19
1736,83	57,34
1738,39	77,82
1739,96	86,01
1741,52	227,32
1743,08	98,30
1744,65	163,84
1746,21	122,88
1747,77	231,42
1749,33	317,44
1750,89	155,65
1752,45	237,56
1754,01	106,49
1755,57	182,27
1757,13	92,16
1758,69	88,06
1760,24	-2,05
1761,80	47,10
1763,36	126,97
1764,91	38,91
1766,47	143,36
1768,02	2,05
1769,58	16,38
1771,13	233,47
1772,68	124,93
1774,24	90,11
1775,79	155,65
1777,34	61,44
1778,89	34,82
1780,44	190,46
1781,99	-40,96
1783,54	186,37
1785,09	96,25
1786,64	155,65
1788,19	157,69
1789,73	169,98
1791,28	188,41
1792,83	49,15
1794,37	65,54
1795,92	-8,19
1797,46	8,19
1799,01	145,41
1800,55	157,69
1802,09	133,12
1803,64	2,05
1805,18	34,82
1806,72	22,53
1808,26	104,45
1809,80	53,25
1811,34	40,96
1812,88	169,98
1814,42	-10,24
1815,96	122,88
1817,50	116,73
1819,04	143,36
1820,57	122,88
1822,11	-16,38
1823,65	79,87
1825,18	81,92
1826,72	59,39
1828,25	169,98
1829,78	32,77
1831,32	61,44
1832,85	67,58
1834,38	147,45
1835,92	73,73
1837,45	147,45
1838,98	129,02
1840,51	192,51
1842,04	241,66
1843,57	243,71
1845,10	260,09
1846,62	102,40
1848,15	34,82
1849,68	71,68
1851,21	151,55
1852,73	149,50
1854,26	75,77
1855,78	114,69
1857,31	303,10
1858,83	65,53
1860,36	51,20
1861,88	151,55
1863,40	77,82
1864,92	124,93
1866,45	88,06
1867,97	104,45
1869,49	40,96
1871,01	139,26
1872,53	141,31
1874,05	100,35
1875,57	188,41
1877,08	67,58
1878,60	65,53
1880,12	212,99
1881,64	77,82
1883,15	178,17
1884,67	94,21
1886,18	-36,86
1887,70	133,12
1889,21	139,26
1890,72	10,24
1892,24	61,44
1893,75	131,07
1895,26	90,11
1896,77	192,51
1898,28	61,44
1899,79	133,12
1901,30	53,25
1902,81	157,69
1904,32	51,20
1905,83	235,52
1907,34	172,03
1908,85	133,12
1910,35	96,25
1911,86	131,07
1913,37	239,61
1914,87	151,55
1916,38	2,05
1917,88	6,14
1919,39	16,38
1920,89	61,44
1922,39	108,54
1923,89	143,36
1925,40	22,53
1926,90	116,73
1928,40	102,40
1929,90	135,17
1931,40	180,22
1932,90	163,84
1934,40	198,65
1935,90	-16,38
1937,39	133,12
1938,89	-6,14
1940,39	36,86
1941,89	-26,62
1943,38	65,54
1944,88	32,77
1946,37	149,50
1947,87	155,65
1949,36	96,25
1950,85	-12,29
1952,35	98,30
1953,84	34,82
1955,33	114,69
1956,82	178,17
1958,31	253,95
1959,80	24,58
1961,29	129,02
1962,78	32,77
1964,27	120,83
1965,76	45,06
1967,25	139,26
1968,74	53,25
1970,22	53,25
1971,71	151,55
1973,20	102,40
1974,68	28,67
1976,17	69,63
1977,65	88,06
1979,14	239,61
1980,62	51,20
1982,10	38,91
1983,58	139,26
1985,07	309,24
1986,55	169,98
1988,03	145,41
1989,51	223,23
1990,99	43,01
1992,47	135,17
1993,95	47,10
1995,43	241,66
1996,91	135,17
1998,38	126,97
1999,86	299,00
2001,34	133,12
2002,81	67,58
2004,29	206,84
2005,76	-45,06
2007,24	51,20
2008,71	192,51
2010,19	51,20
2011,66	139,26
2013,13	2,05
2014,60	161,79
2016,08	55,30
2017,55	22,53
2019,02	290,81
2020,49	200,70
2021,96	149,50
2023,43	126,97
2024,90	131,07
2026,36	51,20
2027,83	194,56
2029,30	-38,91
2030,77	120,83
2032,23	59,39
2033,70	178,17
2035,16	167,93
2036,63	153,60
2038,09	178,17
2039,56	202,75
2041,02	102,40
2042,48	165,89
2043,95	114,69
2045,41	256,00
2046,87	176,13
2048,33	153,60
2049,79	180,22
2051,25	126,97
2052,71	98,30
2054,17	71,68
2055,63	153,60
2057,09	247,80
2058,54	221,18
2060,00	174,08
2061,46	264,19
2062,91	153,60
2064,37	270,33
2065,82	169,98
2067,28	258,04
2068,73	55,30
2070,19	106,49
2071,64	155,65
2073,09	153,60
2074,54	69,63
2076,00	147,45
2077,45	122,88
2078,90	32,77
2080,35	75,77
2081,80	63,49
2083,25	176,13
2084,70	212,99
2086,14	55,30
2087,59	81,92
2089,04	118,78
2090,49	47,10
2091,93	57,34
2093,38	135,17
2094,83	176,13
2096,27	219,13
2097,71	90,11
2099,16	225,28
2100,60	55,30
2102,05	272,38
2103,49	192,51
2104,93	92,16
2106,37	217,08
2107,81	98,30
2109,25	194,56
2110,69	251,90
2112,13	135,17
2113,57	258,04
2115,01	241,66
2116,45	6,14
2117,89	329,72
2119,33	276,48
2120,76	284,67
2122,20	258,04
2123,63	186,37
2125,07	348,15
2126,51	194,56
2127,94	167,93
2129,37	104,45
2130,81	151,55
2132,24	186,37
2133,67	215,04
2135,11	184,32
2136,54	303,10
2137,97	217,08
2139,40	337,91
2140,83	276,48
2142,26	407,55
2143,69	184,32
2145,12	296,96
2146,55	274,43
2147,97	489,46
2149,40	344,06
2150,83	251,90
2152,25	276,48
2153,68	186,37
2155,11	124,93
2156,53	272,38
2157,96	411,64
2159,38	229,37
2160,80	278,52
2162,23	227,32
2163,65	430,07
2165,07	288,76
2166,49	380,92
2167,91	253,95
2169,33	421,88
2170,75	284,67
2172,17	417,79
2173,59	362,49
2175,01	307,20
2176,43	299,00
2177,85	378,87
2179,27	272,38
2180,68	411,64
2182,10	485,37
2183,52	432,12
2184,93	460,79
2186,35	743,41
2187,76	536,57
2189,18	444,41
2190,59	448,51
2192,00	626,68
2193,42	546,81
2194,83	442,36
2196,24	401,40
2197,65	438,27
2199,06	370,68
2200,47	518,14
2201,88	690,17
2203,29	532,47
2204,70	432,12
2206,11	645,11
2207,52	495,61
2208,93	641,01
2210,33	534,52
2211,74	743,41
2213,15	690,17
2214,55	724,98
2215,96	714,74
2217,36	569,34
2218,77	645,11
2220,17	573,43
2221,57	647,16
2222,98	612,34
2224,38	741,36
2225,78	790,52
2227,18	819,19
2228,58	761,84
2229,99	677,88
2231,39	833,52
2232,79	806,90
2234,18	925,68
2235,58	851,95
2236,98	866,29
2238,38	808,95
2239,78	894,96
2241,17	917,49
2242,57	1052,66
2243,97	839,67
2245,36	960,50
2246,76	913,39
2248,15	1103,86
2249,55	1050,61
2250,94	1118,19
2252,33	1202,16
2253,73	1150,96
2255,12	1118,19
2256,51	1552,36
2257,90	1193,97
2259,29	1253,36
2260,68	1296,36
2262,07	1437,67
2263,46	1337,32
2264,85	1458,15
2266,24	1443,82
2267,63	1464,30
2269,02	1542,12
2270,40	1585,13
2271,79	1417,19
2273,18	1710,05
2274,56	1552,36
2275,95	1609,70
2277,33	1693,67
2278,72	1857,51
2280,10	1804,26
2281,49	1939,43
2282,87	1763,30
2284,25	2140,13
2285,63	1990,63
2287,02	2236,38
2288,40	2023,39
2289,78	2133,98
2291,16	2326,49
2292,54	2334,68
2293,92	2404,32
2295,30	2508,76
2296,68	2510,81
2298,05	2596,82
2299,43	2705,37
2300,81	2537,43
2302,19	2795,48
2303,56	2897,88
2304,94	2957,27
2306,31	3209,17
2307,69	3033,04
2309,06	3366,86
2310,44	3217,36
2311,81	3463,12
2313,19	3590,09
2314,56	3452,88
2315,93	3440,59
2317,30	3831,75
2318,67	3815,37
2320,04	3774,41
2321,41	3901,38
2322,78	3936,20
2324,15	4087,75
2325,52	4233,15
2326,89	4372,41
2328,26	4304,83
2329,63	4648,89
2331,00	4622,27
2332,36	4874,17
2333,73	4728,76
2335,09	5130,16
2336,46	5275,57
2337,83	5203,89
2339,19	5402,54
2340,55	5308,34
2341,92	5590,95
2343,28	5572,52
2344,64	5785,51
2346,01	5846,95
2347,37	6295,46
2348,73	6104,99
2350,09	6125,47
2351,45	6373,28
2352,81	6465,44
2354,17	15027,99
2355,53	6674,33
2356,89	6786,97
2358,25	6504,35
2359,61	6942,61
2360,96	6989,72
2362,32	6887,32
2363,68	7243,67
2365,03	7108,50
2366,39	7223,19
2367,74	7038,87
2369,10	7436,17
2370,45	7204,75
2371,81	7389,07
2373,16	7503,76
2374,51	7442,32
2375,86	7458,70
2377,22	7423,89
2378,57	7384,98
2379,92	7509,90
2381,27	7794,57
2382,62	7595,92
2383,97	7892,87
2385,32	7667,60
2386,67	7759,75
2388,02	7466,89
2389,37	7667,60
2390,71	7841,67
2392,06	7923,59
2393,41	7749,51
2394,75	7769,99
2396,10	7993,22
2397,44	7710,60
2398,79	7804,81
2400,13	7743,37
2401,48	7423,89
2402,82	7559,05
2404,17	7448,46
2405,51	7649,16
2406,85	7595,92
2408,19	7485,33
2409,53	7557,00
2410,87	7368,59
2412,22	7346,06
2413,56	7235,47
2414,89	7262,10
2416,23	7161,75
2417,57	7350,16
2418,91	7491,47
2420,25	7544,72
2421,59	7382,93
2422,92	7597,96
2424,26	7423,89
2425,60	7313,30
2426,93	7282,58
2428,27	7071,64
2429,60	7118,74
2430,94	7104,40
2432,27	7092,12
2433,60	7307,15
2434,94	7118,74
2436,27	7317,39
2437,60	7186,32
2438,93	7301,01
2440,27	7384,98
2441,60	7028,63
2442,93	7212,95
2444,26	7176,08
2445,59	7088,02
2446,92	6782,87
2448,24	6762,39
2449,57	7092,12
2450,90	6963,09
2452,23	6770,58
2453,55	7018,39
2454,88	7141,27
2456,21	7217,04
2457,53	7217,04
2458,86	7110,55
2460,18	7280,53
2461,51	7133,08
2462,83	7204,75
2464,15	7372,69
2465,48	7417,74
2466,80	7354,26
2468,12	7139,22
2469,44	7481,23
2470,76	7045,01
2472,09	7116,69
2473,41	7196,56
2474,73	7227,28
2476,05	7176,08
2477,36	7131,03
2478,68	7221,14
2480,00	7204,75
2481,32	7366,54
2482,64	7470,99
2483,95	7217,04
2485,27	7085,97
2486,59	7241,62
2487,90	7149,46
2489,22	7292,82
2490,53	7098,26
2491,85	7352,21
2493,16	7055,25
2494,47	7235,47
2495,79	7323,54
2497,10	7329,68
2498,41	7186,32
2499,72	7358,35
2501,03	7151,51
2502,35	7100,31
2503,66	6881,17
2504,97	6754,20
2506,28	7102,36
2507,59	7088,02
2508,89	7055,25
2510,20	6909,85
2511,51	6881,18
2512,82	6750,10
2514,12	6694,81
2515,43	6881,17
2516,74	6784,92
2518,04	6739,87
2519,35	6657,95
2520,65	6346,66
2521,96	6490,01
2523,26	6584,22
2524,57	6223,78
2525,87	6365,09
2527,17	6680,47
2528,47	6268,83
2529,78	6240,16
2531,08	6199,20
2532,38	6416,29
2533,68	6424,48
2534,98	6100,90
2536,28	6326,18
2537,58	6059,94
2538,88	5951,40
2540,18	5949,35
2541,47	5980,07
2542,77	5742,50
2544,07	5830,57
2545,37	5740,46
2546,66	5550,00
2547,96	5654,44
2549,25	5765,03
2550,55	5615,53
2551,84	5564,33
2553,14	5377,97
2554,43	5529,52
2555,72	5386,16
2557,02	5240,75
2558,31	5377,97
2559,60	5248,94
2560,89	5085,11
2562,18	5341,10
2563,48	5068,72
2564,77	4839,35
2566,06	5160,88
2567,35	4822,97
2568,63	4751,29
2569,92	4730,81
2571,21	4663,22
2572,50	4964,28
2573,79	4526,01
2575,07	4644,79
2576,36	4548,54
2577,65	4650,94
2578,93	4650,94
2580,22	4741,05
2581,50	4431,80
2582,79	4321,21
2584,07	4321,21
2585,36	4100,03
2586,64	4179,90
2587,92	4216,77
2589,20	3966,92
2590,49	3975,11
2591,77	3876,80
2593,05	3917,76
2594,33	3801,03
2595,61	3878,85
2596,89	3700,68
2598,17	3934,15
2599,45	3936,20
2600,73	3803,08
2602,00	3577,80
2603,28	3579,85
2604,56	3762,12
2605,84	3454,92
2607,11	3604,42
2608,39	3528,65
2609,67	3467,21
2610,94	3397,58
2612,22	3297,23
2613,49	3319,76
2614,76	3338,19
2616,04	3141,58
2617,31	3106,77
2618,58	3106,77
2619,86	3196,88
2621,13	3219,41
2622,40	3086,29
2623,67	3022,80
2624,94	3053,52
2626,21	2797,53
2627,48	2867,16
2628,75	2822,10
2630,02	2777,05
2631,29	2838,48
2632,56	2621,40
2633,82	2650,07
2635,09	2748,37
2636,36	2703,32
2637,63	2578,39
2638,89	2539,48
2640,16	2672,60
2641,42	2496,47
2642,69	2492,38
2643,95	2506,71
2645,22	2412,51
2646,48	2478,04
2647,74	2475,99
2649,01	2404,32
2650,27	2045,92
2651,53	2357,21
2652,79	2209,76
2654,05	2340,83
2655,31	2238,43
2656,57	2179,04
2657,83	2121,70
2659,09	2191,33
2660,35	2031,58
2661,61	1931,23
2662,87	2013,15
2664,13	1923,04
2665,38	2097,12
2666,64	2103,26
2667,90	1906,66
2669,15	1920,99
2670,41	1886,18
2671,67	1953,76
2672,92	1941,47
2674,17	1992,67
2675,43	1914,85
2676,68	1763,30
2677,94	1744,87
2679,19	1826,79
2680,44	1693,67
2681,69	1751,01
2682,95	1632,23
2684,20	1644,52
2685,45	1712,10
2686,70	1683,43
2687,95	1560,55
2689,20	1501,16
2690,45	1521,64
2691,70	1558,50
2692,94	1509,35
2694,19	1439,72
2695,44	1314,80
2696,69	1370,09
2697,93	1288,17
2699,18	1253,36
2700,43	1355,76
2701,67	1435,63
2702,92	1269,74
2704,16	1333,23
2705,41	1259,50
2706,65	1198,06
2707,89	1173,49
2709,14	1191,92
2710,38	1107,95
2711,62	1218,54
2712,86	991,22
2714,11	1083,38
2715,35	1028,08
2716,59	989,17
2717,83	1021,94
2719,07	1036,27
2720,31	696,31
2721,55	915,44
2722,78	940,02
2724,02	780,28
2725,26	735,22
2726,50	808,95
2727,73	700,41
2728,97	673,78
2730,21	620,53
2731,44	636,92
2732,68	561,14
2733,91	604,15
2735,15	602,10
2736,38	626,68
2737,62	565,24
2738,85	483,32
2740,08	595,96
2741,32	448,51
2742,55	450,55
2743,78	243,71
2745,01	460,79
2746,24	415,74
2747,47	491,51
2748,70	460,79
2749,93	376,83
2751,16	454,65
2752,39	436,22
2753,62	362,49
2754,85	432,12
2756,08	303,10
2757,30	243,71
2758,53	557,05
2759,76	366,59
2760,98	299,00
2762,21	376,83
2763,43	366,59
2764,66	313,34
2765,88	514,04
2767,11	245,76
2768,33	116,73
2769,55	370,68
2770,78	358,39
2772,00	260,09
2773,22	413,69
2774,44	231,42
2775,67	370,68
2776,89	368,63
2778,11	374,78
2779,33	319,48
2780,55	192,51
2781,77	184,32
2782,99	393,21
2784,20	282,62
2785,42	221,18
2786,64	159,74
2787,86	256,00
2789,07	241,66
2790,29	346,11
2791,51	286,72
2792,72	376,83
2793,94	172,03
2795,15	110,59
2796,37	290,81
2797,58	309,24
2798,80	184,32
2800,01	208,89
2801,22	118,78
2802,44	253,95
2803,65	184,32
2804,86	227,32
2806,07	163,84
2807,28	315,39
2808,49	96,25
2809,70	305,15
2810,91	260,09
2812,12	307,20
2813,33	323,58
2814,54	77,82
2815,75	227,32
2816,96	217,08
2818,16	135,17
2819,37	196,61
2820,58	126,97
2821,78	190,46
2822,99	274,43
2824,20	110,59
2825,40	319,48
2826,61	186,37
2827,81	53,25
2829,01	325,63
2830,22	98,30
2831,42	36,86
2832,62	153,60
2833,83	229,37
2835,03	124,93
2836,23	231,42
2837,43	137,21
2838,63	307,20
2839,83	188,41
2841,03	110,59
2842,23	188,41
2843,43	73,73
2844,63	88,06
2845,83	83,97
2847,03	151,55
2848,22	94,21
2849,42	190,46
2850,62	126,97
2851,81	167,93
2853,01	147,45
2854,21	131,07
2855,40	186,37
2856,60	186,37
2857,79	86,01
2858,99	266,24
2860,18	49,15
2861,37	47,10
2862,57	151,55
2863,76	163,84
2864,95	67,58
2866,14	81,92
2867,33	120,83
2868,52	147,45
2869,72	217,08
2870,91	243,71
2872,10	61,44
2873,28	237,56
2874,47	98,30
2875,66	-294,91
2876,85	67,58
2878,04	272,38
2879,23	45,06
2880,41	270,33
2881,60	258,04
2882,79	169,98
2883,97	-4,10
2885,16	94,21
2886,34	116,73
2887,53	204,80
2888,71	61,44
2889,90	348,15
2891,08	165,89
2892,26	149,50
2893,45	264,19
2894,63	124,93
2895,81	57,34
2896,99	174,08
2898,17	-30,72
2899,36	149,50
2900,54	239,61
2901,72	112,64
2902,90	172,03
2904,08	210,94
2905,26	28,67
2906,43	133,12
2907,61	83,97
2908,79	79,87
2909,97	120,83
2911,14	151,55
2912,32	135,17
2913,50	223,23
2914,67	286,72
2915,85	178,17
2917,02	243,71
2918,20	-12,29
2919,37	256,00
2920,55	159,74
2921,72	167,93
2922,90	161,79
2924,07	210,94
2925,24	-20,48
2926,41	188,41
2927,58	118,78
2928,76	135,17
2929,93	280,57
2931,10	71,68
2932,27	186,37
2933,44	-30,72
2934,61	110,59
2935,78	141,31
2936,95	149,50
2938,11	129,02
2939,28	129,02
2940,45	86,01
2941,62	192,51
2942,78	83,97
2943,95	75,77
2945,12	149,50
2946,28	196,61
2947,45	141,31
2948,61	147,45
2949,78	172,03
2950,94	112,64
2952,10	241,66
2953,27	43,01
2954,43	155,65
2955,59	-30,72
2956,76	114,69
2957,92	163,84
2959,08	30,72
2960,24	114,69
2961,40	73,73
2962,56	215,04
2963,72	194,56
2964,88	143,36
2966,04	110,59
2967,20	79,87
2968,36	131,07
2969,52	-24,58
2970,67	229,37
2971,83	86,01
2972,99	126,97
2974,14	112,64
2975,30	206,84
2976,46	90,11
2977,61	325,63
2978,77	126,97
2979,92	59,39
2981,08	120,83
2982,23	204,80
2983,38	90,11
2984,54	65,53
2985,69	176,13
2986,84	43,01
2987,99	-45,06
2989,15	-8,19
2990,30	190,46
2991,45	45,06
2992,60	112,64
2993,75	204,80
2994,90	198,65
2996,05	100,35
2997,20	174,08
2998,35	65,53
2999,49	4,10
3000,64	161,79
3001,79	36,86
3002,94	172,03
3004,08	153,60
3005,23	69,63
3006,38	104,45
3007,52	256,00
3008,67	83,97
3009,81	143,36
3010,96	-71,68
3012,10	122,88
3013,25	75,77
3014,39	163,84
3015,53	129,02
3016,67	182,27
3017,82	38,91
3018,96	143,36
3020,10	163,84
3021,24	47,10
3022,38	-51,20
3023,52	69,63
3024,66	124,93
3025,80	106,49
3026,94	20,48
3028,08	180,22
3029,22	67,58
3030,36	182,27
3031,50	-2,05
3032,63	73,73
3033,77	51,20
3034,91	-2,05
3036,04	65,53
3037,18	67,58
3038,32	204,80
3039,45	32,77
3040,59	118,78
3041,72	194,56
3042,86	16,38
3043,99	75,77
3045,12	100,35
3046,26	38,91
3047,39	90,11
3048,52	200,70
3049,65	83,97
3050,78	24,58
3051,92	-61,44
3053,05	169,98
3054,18	6,14
3055,31	124,93
3056,44	217,08
3057,57	106,49
3058,70	69,63
3059,82	77,82
3060,95	83,97
3062,08	241,66
3063,21	176,13
3064,34	98,30
3065,46	143,36
3066,59	100,35
3067,71	49,15
3068,84	67,58
3069,97	2,05
3071,09	92,16
3072,22	241,66
3073,34	190,46
3074,46	12,29
3075,59	149,50
3076,71	61,44
3077,83	114,69
3078,96	172,03
3080,08	59,39
3081,20	24,58
3082,32	20,48
3083,44	40,96
3084,56	40,96
3085,68	198,65
3086,80	241,66
3087,92	163,84
3089,04	-22,53
3090,16	90,11
3091,28	143,36
3092,40	69,63
3093,51	131,07
3094,63	309,24
3095,75	186,37
3096,87	124,93
3097,98	196,61
3099,10	-12,29
3100,21	317,44
3101,33	161,79
3102,44	108,54
3103,56	-16,38
3104,67	14,34
3105,79	-4,10
3106,90	-30,72
3108,01	104,45
3109,12	151,55
3110,24	278,52
3111,35	202,75
3112,46	49,15
3113,57	186,37
3114,68	124,93
3115,79	36,86
3116,90	-10,24
3118,01	61,44
3119,12	233,47
3120,23	120,83
3121,34	28,67
3122,45	16,38
3123,56	167,93
3124,66	36,86
3125,77	237,56
3126,88	135,17
3127,98	139,26
3129,09	51,20
3130,20	20,48
3131,30	149,50
3132,41	149,50
3133,51	40,96
3134,61	40,96
3135,72	16,38
3136,82	104,45
3137,93	28,67
3139,03	-28,67
3140,13	96,25
3141,23	178,17
3142,33	92,16
3143,44	186,37
3144,54	83,97
3145,64	184,32
3146,74	182,27
3147,84	233,47
3148,94	32,77
3150,04	131,07
3151,14	235,52
3152,23	51,20
3153,33	51,20
3154,43	174,08
3155,53	116,73
3156,63	51,20
3157,72	124,93
3158,82	30,72
3159,91	36,86
3161,01	-4,10
3162,11	108,54
3163,20	69,63
3164,30	12,29
3165,39	194,56
3166,48	174,08
3167,58	186,37
3168,67	182,27
3169,76	112,64
3170,86	88,06
3171,95	0,00
3173,04	118,78
3174,13	161,79
3175,22	102,40
3176,31	180,22
3177,40	69,63
3178,49	4,10
3179,58	106,49
3180,67	2,05
3181,76	98,30
3182,85	36,86
3183,94	104,45
3185,03	139,26
3186,11	-6,14
3187,20	-12,29
3188,29	69,63
3189,37	106,49
3190,46	96,25
3191,55	159,74
3192,63	155,65
3193,72	149,50
3194,80	112,64
3195,89	131,07
3196,97	120,83
3198,05	8,19
3199,14	16,38
3200,22	167,93
3201,30	102,40
3202,38	215,04
3203,47	114,69
3204,55	229,37
3205,63	112,64
3206,71	161,79
3207,79	88,06
3208,87	194,56
3209,95	96,25
3211,03	8,19
3212,11	124,93
3213,19	30,72
3214,27	88,06
3215,34	16,38
3216,42	110,59
3217,50	-102,40
3218,58	223,23
3219,65	63,49
3220,73	55,30
3221,80	34,82
3222,88	159,74
3223,96	161,79
3225,03	157,69
3226,10	172,03
3227,18	178,17
3228,25	186,37
3229,33	14,34
3230,40	81,92
3231,47	155,65
3232,54	88,06
3233,62	81,92
3234,69	96,25
3235,76	73,73
3236,83	131,07
3237,90	143,36
3238,97	71,68
3240,04	73,73
3241,11	-24,58
3242,18	186,37
3243,25	182,27
3244,32	6,14
3245,39	77,82
3246,45	94,21
3247,52	20,48
3248,59	-38,91
3249,66	96,25
3250,72	-71,68
3251,79	135,17
3252,85	184,32
3253,92	51,20
3254,98	-114,69
3256,05	71,68
3257,11	-26,62
3258,18	135,17
3259,24	-100,35
3260,30	184,32
3261,37	-4,10
3262,43	30,72
3263,49	208,89
3264,55	49,15
3265,62	169,98
3266,68	192,51
3267,74	129,02
3268,80	139,26
3269,86	108,54
3270,92	63,49
3271,98	51,20
3273,04	40,96
3274,10	8,19
3275,16	143,36
3276,21	40,96
3277,27	12,29
3278,33	100,35
3279,39	100,35
3280,44	10,24
3281,50	118,78
3282,56	-32,77
3283,61	2,05
3284,67	12,29
3285,72	75,77
3286,78	145,41
3287,83	-18,43
3288,88	6,14
3289,94	57,34
3290,99	100,35
3292,04	-57,34
3293,10	180,22
3294,15	63,49
3295,20	155,65
3296,25	159,74
3297,30	-10,24
3298,36	184,32
3299,41	106,49
3300,46	-32,77
3301,51	141,31
3302,56	-10,24
3303,61	57,34
3304,65	114,69
3305,70	-94,21
3306,75	153,60
3307,80	12,29
3308,85	118,78
3309,89	126,97
3310,94	141,31
3311,99	-10,24
3313,03	100,35
3314,08	141,31
3315,12	77,82
3316,17	-10,24
3317,21	157,69
3318,26	102,40
3319,30	223,23
3320,35	131,07
3321,39	147,45
3322,43	-131,07
3323,48	180,22
3324,52	145,41
3325,56	133,12
3326,60	200,70
3327,64	120,83
3328,68	114,69
3329,73	98,30
3330,77	161,79
3331,81	147,45
3332,85	153,60
3333,88	-16,38
3334,92	-26,62
3335,96	137,21
3337,00	0,00
3338,04	88,06
3339,08	53,25
3340,11	155,65
3341,15	51,20
3342,19	-26,62
3343,22	210,94
3344,26	145,41
3345,30	-59,39
3346,33	-32,77
3347,37	184,32
3348,40	108,54
3349,43	260,09
3350,47	98,30
3351,50	129,02
3352,54	26,62
3353,57	47,10
3354,60	180,22
3355,63	167,93
3356,67	143,36
3357,70	79,87
3358,73	-12,29
3359,76	-102,40
3360,79	116,73
3361,82	-55,30
3362,85	143,36
3363,88	-126,97
3364,91	143,36
3365,94	4,10
3366,97	-12,29
3367,99	-4,10
3369,02	26,62
3370,05	61,44
3371,08	-45,06
3372,10	49,15
3373,13	63,49
3374,16	88,06
3375,18	126,97
3376,21	32,77
3377,23	88,06
3378,26	204,80
3379,28	-43,01
3380,31	81,92
3381,33	167,93
3382,35	20,48
3383,38	51,20
3384,40	210,94
3385,42	22,53
3386,45	131,07
3387,47	34,82
3388,49	88,06
3389,51	161,79
3390,53	-47,10
3391,55	12,29
3392,57	20,48
3393,59	22,53
3394,61	151,55
3395,63	86,01
3396,65	102,40
3397,67	131,07
3398,69	200,70
3399,70	22,53
3400,72	0,00
3401,74	192,51
3402,76	43,01
3403,77	165,89
3404,79	198,65
3405,80	-6,14
3406,82	51,20
3407,83	71,68
3408,85	-81,92
3409,86	45,06
3410,88	126,97
3411,89	49,15
3412,91	-114,69
3413,92	63,49
3414,93	49,15
3415,94	223,23
3416,96	184,32
3417,97	149,50
3418,98	59,39
3419,99	53,25
3421,00	94,21
3422,01	14,34
3423,02	153,60
3424,03	153,60
3425,04	129,02
3426,05	196,61
3427,06	231,42
3428,07	137,21
3429,08	202,75
3430,09	43,01
3431,09	8,19
3432,10	124,93
3433,11	233,47
3434,12	53,25
3435,12	-24,58
3436,13	26,62
3437,13	397,31
3438,14	159,74
3439,14	108,54
3440,15	6,14
3441,15	71,68
3442,16	86,01
3443,16	47,10
3444,16	210,94
3445,17	8,19
3446,17	106,49
3447,17	151,55
3448,17	139,26
3449,18	-6,14
3450,18	32,77
3451,18	65,53
3452,18	153,60
3453,18	59,39
3454,18	61,44
3455,18	178,17
3456,18	-18,43
3457,18	90,11
3458,18	88,06
3459,17	26,62
3460,17	118,78
3461,17	184,32
3462,17	225,28
3463,17	63,49
3464,16	116,73
3465,16	161,79
3466,15	-100,35
3467,15	288,76
3468,15	71,68
3469,14	43,01
3470,14	155,65
3471,13	69,63
3472,13	120,83
3473,12	-38,91
3474,11	155,65
3475,11	32,77
3476,10	116,73
3477,09	165,89
3478,08	210,94
3479,08	-22,53
3480,07	53,25
3481,06	98,30
3482,05	102,40
3483,04	124,93
3484,03	131,07
3485,02	104,45
3486,01	2,05
3487,00	120,83
3487,99	237,56
3488,98	108,54
3489,97	16,38
3490,95	-24,58
3491,94	-24,58
3492,93	108,54
3493,92	51,20
3494,90	194,56
3495,89	98,30
3496,88	-55,30
3497,86	-75,77
3498,85	51,20
3499,83	34,82
3500,82	8,19
3501,80	8,19
3502,79	-8,19
3503,77	147,45
3504,75	36,86
3505,74	73,73
3506,72	104,45
3507,70	135,17
3508,68	53,25
3509,67	137,21
3510,65	155,65
3511,63	90,11
3512,61	110,59
3513,59	108,54
3514,57	143,36
3515,55	251,90
3516,53	-47,10
3517,51	188,41
3518,49	225,28
3519,47	206,84
3520,45	18,43
3521,42	61,44
3522,40	235,52
3523,38	86,01
3524,36	153,60
3525,33	92,16
3526,31	-8,19
3527,29	215,04
3528,26	178,17
3529,24	-49,15
3530,21	102,40
3531,19	0,00
3532,16	108,54
3533,14	88,06
3534,11	235,52
3535,08	16,38
3536,06	108,54
3537,03	143,36
3538,00	131,07
3538,98	227,32
3539,95	36,86
3540,92	57,34
3541,89	118,78
3542,86	63,49
3543,83	-38,91
3544,80	194,56
3545,77	96,25
3546,74	149,50
3547,71	149,50
3548,68	40,96
3549,65	151,55
3550,62	2,05
3551,59	186,37
3552,56	182,27
3553,52	-55,30
3554,49	139,26
3555,46	186,37
3556,42	4,10
3557,39	131,07
3558,36	63,49
3559,32	135,17
3560,29	126,97
3561,25	-36,86
3562,22	12,29
3563,18	96,25
3564,15	100,35
3565,11	20,48
3566,07	188,41
3567,04	307,20
3568,00	192,51
3568,96	94,21
3569,92	159,74
3570,89	94,21
3571,85	69,63
3572,81	-47,10
3573,77	102,40
3574,73	28,67
3575,69	22,53
3576,65	49,15
3577,61	61,44
3578,57	96,25
3579,53	92,16
3580,49	61,44
3581,45	110,59
3582,40	114,69
3583,36	-79,87
3584,32	92,16
3585,28	157,69
3586,23	45,06
3587,19	-28,67
3588,15	4,10
3589,10	36,86
3590,06	116,73
3591,01	-36,86
3591,97	102,40
3592,92	122,88
3593,88	57,34
3594,83	-32,77
3595,78	-8,19
3596,74	147,45
3597,69	65,53
3598,64	-133,12
3599,60	61,44
3600,55	126,97
3601,50	71,68
3602,45	32,77
3603,40	-90,11
3604,35	141,31
3605,31	40,96
3606,26	133,12
3607,21	45,06
3608,16	20,48
3609,10	-22,53
3610,05	90,11
3611,00	-10,24
3611,95	55,30
3612,90	88,06
3613,85	47,10
3614,79	-16,38
3615,74	16,38
3616,69	61,44
3617,63	-71,68
3618,58	36,86
3619,53	34,82
3620,47	43,01
3621,42	77,82
3622,36	126,97
3623,31	77,82
3624,25	96,25
3625,20	206,84
3626,14	-75,77
3627,08	81,92
3628,03	-4,10
3628,97	-38,91
3629,91	-45,06
3630,85	120,83
3631,80	157,69
3632,74	194,56
3633,68	88,06
3634,62	108,54
3635,56	47,10
3636,50	71,68
3637,44	38,91
3638,38	6,14
3639,32	32,77
3640,26	116,73
3641,20	-30,72
3642,14	167,93
3643,08	14,34
3644,01	30,72
3644,95	49,15
3645,89	86,01
3646,83	126,97
3647,76	92,16
3648,70	114,69
3649,63	174,08
3650,57	86,01
3651,51	67,58
3652,44	32,77
3653,38	49,15
3654,31	118,78
3655,24	43,01
3656,18	69,63
3657,11	186,37
3658,05	-81,92
3658,98	141,31
3659,91	2,05
3660,84	51,20
3661,78	8,19
3662,71	-40,96
3663,64	122,88
3664,57	206,84
3665,50	-75,77
3666,43	38,91
3667,36	-38,91
3668,29	153,60
3669,22	-57,34
3670,15	-10,24
3671,08	53,25
3672,01	143,36
3672,94	-135,17
3673,86	69,63
3674,79	75,77
3675,72	71,68
3676,65	227,32
3677,57	94,21
3678,50	55,30
3679,43	86,01
3680,35	92,16
3681,28	40,96
3682,20	129,02
3683,13	90,11
3684,05	104,45
3684,98	57,34
3685,90	18,43
3686,83	26,62
3687,75	71,68
3688,67	75,77
3689,60	118,78
3690,52	196,61
3691,44	55,30
3692,36	32,77
3693,28	131,07
3694,21	-90,11
3695,13	147,45
3696,05	14,34
3696,97	139,26
3697,89	178,17
3698,81	106,49
3699,73	20,48
3700,65	32,77
3701,57	219,13
3702,48	102,40
3703,40	67,58
3704,32	219,13
3705,24	10,24
3706,16	45,06
3707,07	-69,63
3707,99	10,24
3708,91	116,73
3709,82	92,16
3710,74	8,19
3711,66	202,75
3712,57	108,54
3713,49	14,34
3714,40	108,54
3715,31	94,21
3716,23	16,38
3717,14	-36,86
3718,06	59,39
3718,97	139,26
3719,88	102,40
3720,80	139,26
3721,71	-1816,55
3722,62	71,68
3723,53	86,01
3724,44	90,11
3725,35	188,41
3726,26	30,72
3727,18	-65,53
3728,09	-10,24
3729,00	55,30
3729,91	135,17
3730,81	118,78
3731,72	122,88
3732,63	165,89
3733,54	206,84
3734,45	-28,67
3735,36	-18,43
3736,26	262,14
3737,17	155,65
3738,08	-45,06
3738,99	73,73
3739,89	-34,82
3740,80	151,55
3741,70	-75,77
3742,61	10,24
3743,51	233,47
3744,42	18,43
3745,32	14,34
3746,23	-12,29
3747,13	114,69
3748,04	94,21
3748,94	65,54
3749,84	-47,10
3750,74	28,67
3751,65	30,72
3752,55	116,73
3753,45	-36,86
3754,35	102,40
3755,25	-28,67
3756,16	26,62
3757,06	-12,29
3757,96	-96,25
3758,86	-22,53
3759,76	57,34
3760,66	20,48
3761,55	-94,21
3762,45	10,24
3763,35	16,38
3764,25	106,49
3765,15	161,79
3766,05	124,93
3766,94	-63,49
3767,84	88,06
3768,74	-92,16
3769,63	90,11
3770,53	16,38
3771,43	16,38
3772,32	-43,01
3773,22	108,54
3774,11	165,89
3775,01	-20,48
3775,90	133,12
3776,80	69,63
3777,69	73,73
3778,58	301,05
3779,48	145,41
3780,37	34,82
3781,26	96,25
3782,16	147,45
3783,05	24,58
3783,94	169,98
3784,83	20,48
3785,72	159,74
3786,61	36,86
3787,50	126,97
3788,39	-36,86
3789,28	198,65
3790,17	53,25
3791,06	30,72
3791,95	110,59
3792,84	67,58
3793,73	-120,83
3794,62	20,48
3795,51	-81,92
3796,39	116,73
3797,28	6,14
3798,17	126,97
3799,06	-20,48
3799,94	-100,35
3800,83	-2,05
3801,71	22,53
3802,60	-65,53
3803,48	167,93
3804,37	63,49
3805,25	104,45
3806,14	137,21
3807,02	206,84
3807,91	24,58
3808,79	2,05
3809,67	53,25
3810,56	34,82
3811,44	65,53
3812,32	10,24
3813,20	30,72
3814,09	63,49
3814,97	98,30
3815,85	63,49
3816,73	96,25
3817,61	118,78
3818,49	92,16
3819,37	-20,48
3820,25	-104,45
3821,13	61,44
3822,01	75,77
3822,89	14,34
3823,77	102,40
3824,65	-38,91
3825,52	106,49
3826,40	32,77
3827,28	45,06
3828,16	-133,12
3829,03	30,72
3829,91	53,25
3830,79	178,17
3831,66	-63,49
3832,54	131,07
3833,41	-18,43
3834,29	182,27
3835,16	43,01
3836,04	-12,29
3836,91	34,82
3837,79	161,79
3838,66	-14,34
3839,53	120,83
3840,41	180,22
3841,28	73,73
3842,15	94,21
3843,02	-34,82
3843,90	49,15
3844,77	192,51
3845,64	118,78
3846,51	-6,14
3847,38	40,96
3848,25	67,58
3849,12	-28,67
3849,99	38,91
3850,86	-30,72
3851,73	43,01
3852,60	75,77
3853,47	34,82
3854,34	-83,97
3855,21	71,68
3856,07	184,32
3856,94	40,96
3857,81	-83,97
3858,68	81,92
3859,54	61,44
3860,41	208,89
3861,28	79,87
3862,14	141,31
3863,01	8,19
3863,87	-2,05
3864,74	55,30
3865,60	2,05
3866,47	51,20
3867,33	83,97
3868,19	53,25
3869,06	116,73
3869,92	65,53
3870,78	161,79
3871,65	-32,77
3872,51	14,34
3873,37	-245,76
3874,23	190,46
3875,10	75,77
3875,96	65,53
3876,82	24,58
3877,68	-24,58
3878,54	-18,43
3879,40	24,58
3880,26	30,72
3881,12	96,25
3881,98	0,00
3882,84	-22,53
3883,70	-79,87
3884,55	26,62
3885,41	-8,19
3886,27	61,44
3887,13	-10,24
3887,99	229,37
3888,84	-28,67
3889,70	61,44
3890,56	92,16
3891,41	147,45
3892,27	77,82
3893,12	-34,82
3893,98	-45,06
3894,83	131,07
3895,69	163,84
3896,54	-59,39
3897,40	202,75
3898,25	81,92
3899,11	55,30
3899,96	124,93
3900,81	49,15
3901,66	24,58
3902,52	112,64
3903,37	45,06
3904,22	22,53
3905,07	-14,34
3905,92	-77,82
3906,78	208,89
3907,63	43,01
>>>>>End Processed Spectral Data<<<<<
