SpectraSuite Datei
++++++++++++++++++++++++++++++++++++
Datum: Wed Nov 28 11:41:35 CET 2018
Benutzer: Raman
Dark-Spektrum vorhanden: Ja
Referenz-Spektrum vorhanden: Nein
Zahl der probierten Teilspektren: 1
Spektrometer: USB4F00098
Integrationszeit (usec): 5500000 (USB4F00098)
Spektren Durchschnitt berechnet: 1 (USB4F00098)
Boxcar Glättung: 0 (USB4F00098)
Dunkelstromkorrektur: Nein (USB4F00098)
Puls/Lampe aktiviert: Nein (USB4F00098)
Correct for Detector Non-linearity: Nein (USB4F00098)
Streulichtkorrektur: Nein (USB4F00098)
Anzahl Pixel in verarbeitetem Spektrum: 3648
>>>>>Begin Processed Spectral Data<<<<<
-2184,52	22,53
-2181,51	22,53
-2178,50	22,53
-2175,49	-8,19
-2172,49	-20,48
-2169,48	-14,34
-2166,48	18,43
-2163,48	-81,92
-2160,47	38,91
-2157,47	67,58
-2154,47	90,11
-2151,48	-112,64
-2148,48	126,97
-2145,49	-12,29
-2142,49	63,49
-2139,50	-43,01
-2136,51	114,69
-2133,52	8,19
-2130,53	1107,95
-2127,54	1619,94
-2124,55	1568,74
-2121,57	1568,74
-2118,58	1495,02
-2115,60	1548,26
-2112,62	1316,84
-2109,64	1441,77
-2106,66	1689,57
-2103,68	1578,98
-2100,70	1642,47
-2097,73	1605,61
-2094,75	1597,42
-2091,78	1484,78
-2088,81	1699,81
-2085,83	1671,14
-2082,86	1667,05
-2079,90	1753,06
-2076,93	1595,37
-2073,96	1562,60
-2071,00	1742,82
-2068,03	1603,56
-2065,07	1548,26
-2062,11	1669,09
-2059,15	1626,09
-2056,19	1681,38
-2053,23	1773,54
-2050,27	1595,37
-2047,32	1683,43
-2044,36	1529,83
-2041,41	1492,97
-2038,46	1644,52
-2035,51	1648,61
-2032,56	1533,93
-2029,61	1542,12
-2026,66	1507,30
-2023,72	1388,52
-2020,77	1421,29
-2017,83	1384,43
-2014,88	1576,94
-2011,94	1503,21
-2009,00	1316,84
-2006,06	1591,27
-2003,13	1476,59
-2000,19	1413,10
-1997,25	1581,03
-1994,32	1386,47
-1991,39	1558,50
-1988,45	1445,87
-1985,52	1560,55
-1982,59	1669,09
-1979,67	1920,99
-1976,74	1533,93
-1973,81	1722,34
-1970,89	1712,10
-1967,96	1744,87
-1965,04	1732,58
-1962,12	1564,65
-1959,20	1554,41
-1956,28	1460,20
-1953,36	1505,26
-1950,45	1345,52
-1947,53	1472,49
-1944,62	1306,60
-1941,70	1294,32
-1938,79	1427,43
-1935,88	1644,52
-1932,97	1478,63
-1930,06	1550,31
-1927,15	1691,62
-1924,25	1525,74
-1921,34	1454,06
-1918,44	1665,00
-1915,54	1472,49
-1912,63	1425,39
-1909,73	1437,67
-1906,83	1388,52
-1903,94	1503,21
-1901,04	1476,59
-1898,14	1452,01
-1895,25	1368,04
-1892,36	1505,26
-1889,46	1589,22
-1886,57	1398,76
-1883,68	1587,18
-1880,79	1501,16
-1877,91	1503,21
-1875,02	1492,97
-1872,13	1581,03
-1869,25	1521,64
-1866,37	1357,80
-1863,48	1630,18
-1860,60	1654,76
-1857,72	1804,26
-1854,84	1578,98
-1851,97	1591,27
-1849,09	1484,78
-1846,22	1556,46
-1843,34	1728,49
-1840,47	1456,11
-1837,60	1419,24
-1834,73	1581,03
-1831,86	1327,08
-1828,99	1343,47
-1826,12	1572,84
-1823,26	1779,68
-1820,39	1808,36
-1817,53	1691,62
-1814,67	1599,46
-1811,80	1636,33
-1808,94	1585,13
-1806,08	1533,93
-1803,23	1486,83
-1800,37	1302,51
-1797,51	1630,18
-1794,66	1460,20
-1791,81	1492,97
-1788,95	1482,73
-1786,10	1335,28
-1783,25	1558,50
-1780,40	1345,52
-1777,56	1234,93
-1774,71	1452,01
-1771,86	1404,91
-1769,02	1312,75
-1766,18	1419,24
-1763,33	1679,33
-1760,49	1542,12
-1757,65	1394,67
-1754,81	1535,98
-1751,98	1454,06
-1749,14	1572,84
-1746,30	1480,68
-1743,47	1574,89
-1740,64	1548,26
-1737,81	1456,11
-1734,97	1589,22
-1732,14	1675,24
-1729,32	1501,16
-1726,49	1458,15
-1723,66	1484,78
-1720,84	1400,81
-1718,01	1607,66
-1715,19	1574,89
-1712,37	1353,71
-1709,55	1513,45
-1706,73	1658,85
-1703,91	1540,07
-1701,09	1728,49
-1698,27	1425,39
-1695,46	1597,42
-1692,65	1488,87
-1689,83	1452,01
-1687,02	1435,63
-1684,21	1335,28
-1681,40	1621,99
-1678,59	1546,22
-1675,78	1708,01
-1672,98	1607,66
-1670,17	1449,96
-1667,37	1443,82
-1664,56	1548,26
-1661,76	1400,81
-1658,96	1683,43
-1656,16	1517,54
-1653,36	1441,77
-1650,57	1562,60
-1647,77	1345,52
-1644,97	1398,76
-1642,18	1392,62
-1639,39	1236,97
-1636,60	1460,20
-1633,80	1404,91
-1631,01	1425,39
-1628,23	1562,60
-1625,44	1529,83
-1622,65	1554,41
-1619,87	1515,50
-1617,08	1648,61
-1614,30	1638,38
-1611,52	1433,58
-1608,74	1458,15
-1605,96	1427,43
-1603,18	1509,35
-1600,40	1546,22
-1597,62	1591,27
-1594,85	1470,44
-1592,07	1517,54
-1589,30	1466,35
-1586,53	1523,69
-1583,76	1511,40
-1580,99	1558,50
-1578,22	1437,67
-1575,45	1521,64
-1572,68	1359,85
-1569,92	1386,47
-1567,15	1372,14
-1564,39	1349,61
-1561,63	1492,97
-1558,86	1480,68
-1556,10	1501,16
-1553,34	1519,59
-1550,59	1398,76
-1547,83	1603,56
-1545,07	1578,98
-1542,32	1454,06
-1539,56	1587,18
-1536,81	1468,39
-1534,06	1656,81
-1531,31	1476,59
-1528,56	1406,95
-1525,81	1519,59
-1523,06	1570,79
-1520,32	1818,60
-1517,57	1382,38
-1514,83	1597,42
-1512,09	1447,91
-1509,34	1431,53
-1506,60	1392,62
-1503,86	1415,15
-1501,12	1316,84
-1498,39	1411,05
-1495,65	1431,53
-1492,91	1318,89
-1490,18	1353,71
-1487,45	1482,73
-1484,71	1290,22
-1481,98	1447,91
-1479,25	1269,74
-1476,52	1464,30
-1473,80	1507,30
-1471,07	1570,79
-1468,34	1339,37
-1465,62	1257,45
-1462,89	1417,19
-1460,17	1513,45
-1457,45	1558,50
-1454,73	1634,28
-1452,01	1484,78
-1449,29	1370,09
-1446,57	1388,52
-1443,86	1558,50
-1441,14	1062,90
-1438,43	1435,63
-1435,71	1234,93
-1433,00	1382,38
-1430,29	1382,38
-1427,58	1339,37
-1424,87	1521,64
-1422,16	1277,93
-1419,46	1460,20
-1416,75	1249,26
-1414,05	1404,91
-1411,34	1423,34
-1408,64	1488,87
-1405,94	1437,67
-1403,24	1509,35
-1400,54	1501,16
-1397,84	3223,50
-1395,14	1464,30
-1392,45	1654,76
-1389,75	1361,90
-1387,06	1433,58
-1384,36	1556,46
-1381,67	1521,64
-1378,98	1456,11
-1376,29	1488,87
-1373,60	1576,94
-1370,91	1689,57
-1368,23	1759,21
-1365,54	1558,50
-1362,86	1578,98
-1360,17	1441,77
-1357,49	1533,93
-1354,81	1587,18
-1352,13	1679,33
-1349,45	1665,00
-1346,77	1607,66
-1344,09	1558,50
-1341,42	1714,15
-1338,74	1669,09
-1336,07	1589,22
-1333,39	1548,26
-1330,72	1431,53
-1328,05	1310,70
-1325,38	1386,47
-1322,71	1378,28
-1320,04	1499,11
-1317,37	1374,19
-1314,71	1425,39
-1312,04	1474,54
-1309,38	1454,06
-1306,72	1433,58
-1304,05	1437,67
-1301,39	1486,83
-1298,73	1316,84
-1296,08	1449,96
-1293,42	1361,90
-1290,76	1433,58
-1288,10	1392,62
-1285,45	1314,80
-1282,80	1492,97
-1280,14	1576,94
-1277,49	1380,33
-1274,84	1525,74
-1272,19	1484,78
-1269,54	1519,59
-1266,90	1630,18
-1264,25	1476,59
-1261,60	1576,94
-1258,96	1460,20
-1256,32	1554,41
-1253,67	1378,28
-1251,03	1621,99
-1248,39	1542,12
-1245,75	1411,05
-1243,11	1458,15
-1240,48	1535,98
-1237,84	1468,39
-1235,20	1581,03
-1232,57	1505,26
-1229,94	1484,78
-1227,31	1447,91
-1224,67	1341,42
-1222,04	1515,50
-1219,41	1345,52
-1216,79	1286,12
-1214,16	1161,20
-1211,53	1316,84
-1208,91	1349,61
-1206,28	1497,07
-1203,66	1458,15
-1201,04	1411,05
-1198,42	1259,50
-1195,80	1474,54
-1193,18	1517,54
-1190,56	1542,12
-1187,94	1443,82
-1185,33	1404,91
-1182,71	1415,15
-1180,10	1544,17
-1177,49	1341,42
-1174,87	1320,94
-1172,26	1355,76
-1169,65	1466,35
-1167,04	1406,95
-1164,44	1380,33
-1161,83	1433,58
-1159,22	1372,14
-1156,62	1458,15
-1154,01	1273,84
-1151,41	1400,81
-1148,81	1433,58
-1146,21	1370,09
-1143,61	1329,13
-1141,01	1306,60
-1138,41	1265,64
-1135,81	1363,95
-1133,22	1316,84
-1130,62	1452,01
-1128,03	1370,09
-1125,44	1384,43
-1122,84	1482,73
-1120,25	1353,71
-1117,66	1519,59
-1115,07	1400,81
-1112,49	1415,15
-1109,90	1456,11
-1107,31	1392,62
-1104,73	1429,48
-1102,14	1402,86
-1099,56	1357,80
-1096,98	1374,19
-1094,40	1409,00
-1091,82	1265,64
-1089,24	1273,84
-1086,66	1282,03
-1084,08	1486,83
-1081,51	1411,05
-1078,93	1515,50
-1076,36	1288,17
-1073,79	1621,99
-1071,21	1419,24
-1068,64	1452,01
-1066,07	1390,57
-1063,50	1613,80
-1060,93	1552,36
-1058,37	1564,65
-1055,80	1415,15
-1053,24	1464,30
-1050,67	1644,52
-1048,11	1380,33
-1045,55	1490,92
-1042,99	1247,21
-1040,42	1437,67
-1037,87	1400,81
-1035,31	1271,79
-1032,75	1312,75
-1030,19	1210,35
-1027,64	1425,39
-1025,08	1390,57
-1022,53	1300,46
-1019,98	1255,40
-1017,43	1222,64
-1014,88	1140,72
-1012,33	1228,78
-1009,78	1361,90
-1007,23	1339,37
-1004,68	1441,77
-1002,14	1357,80
-999,59	1392,62
-997,05	1353,71
-994,51	1366,00
-991,96	1372,14
-989,42	1290,22
-986,88	1322,99
-984,34	1222,64
-981,81	1318,89
-979,27	1263,60
-976,73	1286,12
-974,20	1275,88
-971,66	1300,46
-969,13	1243,12
-966,60	1232,88
-964,07	1259,50
-961,54	1286,12
-959,01	1361,90
-956,48	1236,97
-953,95	1462,25
-951,43	1292,27
-948,90	1474,54
-946,38	1388,52
-943,85	1435,63
-941,33	1466,35
-938,81	1486,83
-936,29	1486,83
-933,77	1437,67
-931,25	1263,60
-928,73	1284,08
-926,22	1167,34
-923,70	1318,89
-921,19	1406,95
-918,67	1560,55
-916,16	1439,72
-913,65	1505,26
-911,14	1361,90
-908,63	1220,59
-906,12	1212,40
-903,61	1097,71
-901,10	1263,60
-898,59	1337,32
-896,09	1261,55
-893,59	1361,90
-891,08	1128,43
-888,58	1331,18
-886,08	1288,17
-883,58	1179,63
-881,08	1140,72
-878,58	1425,39
-876,08	1269,74
-873,58	1286,12
-871,09	1417,19
-868,59	1304,56
-866,10	1308,65
-863,61	1292,27
-861,12	1372,14
-858,62	1335,28
-856,13	1384,43
-853,64	1312,75
-851,16	1331,18
-848,67	1298,41
-846,18	1363,95
-843,70	1327,08
-841,21	1320,94
-838,73	1329,13
-836,25	1255,40
-833,77	1175,53
-831,28	1341,42
-828,81	1296,36
-826,33	1394,67
-823,85	1425,39
-821,37	1236,97
-818,90	1314,80
-816,42	1538,02
-813,95	1345,52
-811,47	1474,54
-809,00	1316,84
-806,53	1306,60
-804,06	1327,08
-801,59	1261,55
-799,12	1226,73
-796,65	1322,99
-794,19	1433,58
-791,72	1298,41
-789,26	1503,21
-786,79	1363,95
-784,33	1275,88
-781,87	1363,95
-779,41	1374,19
-776,95	1271,79
-774,49	1302,51
-772,03	1390,57
-769,57	1306,60
-767,12	1390,57
-764,66	1296,36
-762,21	1206,25
-759,75	1251,31
-757,30	1169,39
-754,85	1249,26
-752,40	1148,91
-749,95	1107,95
-747,50	1183,73
-745,05	1294,32
-742,60	1259,50
-740,16	1191,92
-737,71	1269,74
-735,27	1320,94
-732,82	1251,31
-730,38	1411,05
-727,94	1349,61
-725,50	1208,30
-723,06	1349,61
-720,62	1441,77
-718,18	1366,00
-715,74	1492,97
-713,31	1308,65
-710,87	1505,26
-708,44	1443,82
-706,01	1341,42
-703,57	1404,91
-701,14	1421,29
-698,71	1433,58
-696,28	1388,52
-693,85	1296,36
-691,42	1331,18
-689,00	1486,83
-686,57	1417,19
-684,15	1253,36
-681,72	1167,34
-679,30	1314,80
-676,88	1175,53
-674,45	1349,61
-672,03	1306,60
-669,61	1353,71
-667,20	1093,62
-664,78	1257,45
-662,36	1331,18
-659,94	1275,88
-657,53	1288,17
-655,12	1277,93
-652,70	1404,91
-650,29	1290,22
-647,88	1288,17
-645,47	1200,11
-643,06	1263,60
-640,65	1351,66
-638,24	1318,89
-635,83	1339,37
-633,43	1325,04
-631,02	1298,41
-628,62	1298,41
-626,22	1398,76
-623,81	1288,17
-621,41	1284,08
-619,01	1243,12
-616,61	1206,25
-614,21	1306,60
-611,81	1486,83
-609,42	1312,75
-607,02	1208,30
-604,63	1546,22
-602,23	1482,73
-599,84	1425,39
-597,45	1308,65
-595,05	1507,31
-592,66	1423,34
-590,27	1437,67
-587,88	1341,42
-585,50	1464,30
-583,11	1304,56
-580,72	1406,95
-578,34	1257,45
-575,95	1443,82
-573,57	1308,65
-571,19	1368,04
-568,80	1236,97
-566,42	1148,91
-564,04	1363,95
-561,66	1318,89
-559,29	1359,85
-556,91	1312,75
-554,53	1253,36
-552,16	1251,31
-549,78	1208,30
-547,41	1329,13
-545,03	1261,55
-542,66	1423,34
-540,29	1400,81
-537,92	1232,88
-535,55	1331,18
-533,18	1361,90
-530,81	1214,45
-528,45	1406,95
-526,08	1441,77
-523,72	1390,57
-521,35	1220,59
-518,99	1298,41
-516,63	1218,54
-514,27	1316,84
-511,90	1366,00
-509,54	1251,31
-507,19	1329,13
-504,83	1406,95
-502,47	1277,93
-500,11	1331,18
-497,76	1368,04
-495,40	1503,21
-493,05	1206,25
-490,70	1390,57
-488,35	1437,67
-486,00	1388,52
-483,65	1499,11
-481,30	1435,63
-478,95	1415,15
-476,60	1495,02
-474,25	1464,30
-471,91	1406,95
-469,56	1320,94
-467,22	1310,70
-464,88	1228,78
-462,53	1282,03
-460,19	1202,16
-457,85	1271,79
-455,51	1241,07
-453,17	1306,60
-450,84	1247,21
-448,50	1234,93
-446,16	1310,70
-443,83	1202,16
-441,49	1236,97
-439,16	1230,83
-436,83	1243,12
-434,50	1388,52
-432,16	1372,14
-429,83	1419,24
-427,50	1368,04
-425,18	1304,56
-422,85	1476,59
-420,52	1529,83
-418,20	1376,24
-415,87	1269,74
-413,55	1421,29
-411,22	1122,29
-408,90	1255,40
-406,58	1138,67
-404,26	1331,18
-401,94	1345,52
-399,62	1157,10
-397,30	1060,85
-394,99	1335,28
-392,67	1288,17
-390,35	1249,26
-388,04	1226,73
-385,73	1060,85
-383,41	1112,05
-381,10	1122,29
-378,79	1185,77
-376,48	1247,21
-374,17	1183,73
-371,86	1202,16
-369,55	1214,45
-367,25	1353,71
-364,94	1218,54
-362,64	1376,24
-360,33	1226,73
-358,03	1480,68
-355,73	1394,67
-353,42	1458,15
-351,12	1474,54
-348,82	1325,04
-346,52	1447,91
-344,23	1398,76
-341,93	1339,37
-339,63	1345,52
-337,34	1535,98
-335,04	1435,63
-332,75	1306,60
-330,45	1318,89
-328,16	1335,28
-325,87	1439,72
-323,58	1411,05
-321,29	1142,77
-319,00	1368,04
-316,71	1327,08
-314,42	1417,19
-312,14	1335,28
-309,85	1253,36
-307,57	1298,41
-305,28	1322,99
-303,00	1282,03
-300,72	1200,11
-298,44	1253,36
-296,16	1327,08
-293,88	1122,29
-291,60	1304,56
-289,32	1255,40
-287,04	1447,91
-284,77	1308,65
-282,49	1218,54
-280,22	1378,28
-277,94	1474,54
-275,67	1298,41
-273,40	1447,91
-271,13	1353,71
-268,85	1359,85
-266,59	1484,78
-264,32	1347,56
-262,05	1282,03
-259,78	1333,23
-257,51	1345,52
-255,25	1394,67
-252,98	1396,71
-250,72	1581,03
-248,46	1322,99
-246,20	1310,70
-243,93	1261,55
-241,67	1443,82
-239,41	1484,78
-237,16	1249,26
-234,90	1163,25
-232,64	1335,28
-230,38	1345,52
-228,13	1386,47
-225,87	1241,07
-223,62	1341,42
-221,37	1257,45
-219,11	1263,60
-216,86	1210,35
-214,61	1181,68
-212,36	1308,65
-210,11	1402,86
-207,87	1476,59
-205,62	1345,52
-203,37	1390,57
-201,13	1384,43
-198,88	1472,49
-196,64	1316,84
-194,39	1378,28
-192,15	1388,52
-189,91	1460,20
-187,67	1228,78
-185,43	1390,57
-183,19	1390,57
-180,95	1361,90
-178,72	1333,23
-176,48	1189,87
-174,24	1374,19
-172,01	1013,74
-169,77	1122,29
-167,54	1413,10
-165,31	1333,23
-163,08	1165,29
-160,85	1150,96
-158,62	1288,17
-156,39	1298,41
-154,16	1236,97
-151,93	1245,16
-149,70	1300,46
-147,48	1284,08
-145,25	1155,05
-143,03	1243,12
-140,81	1114,10
-138,58	1429,48
-136,36	1339,37
-134,14	1419,24
-131,92	1523,69
-129,70	1409,00
-127,48	1527,78
-125,26	1327,08
-123,05	1349,61
-120,83	1314,80
-118,62	1292,27
-116,40	1269,74
-114,19	1208,30
-111,97	1314,80
-109,76	1249,26
-107,55	1292,27
-105,34	1259,50
-103,13	1339,37
-100,92	1183,73
-98,71	1327,08
-96,51	1398,76
-94,30	1382,38
-92,09	1425,39
-89,89	1437,67
-87,69	1337,32
-85,48	1482,73
-83,28	1290,22
-81,08	1320,94
-78,88	1406,95
-76,68	1202,16
-74,48	1329,13
-72,28	1325,04
-70,08	1376,24
-67,88	1249,26
-65,69	1359,85
-63,49	1257,45
-61,30	1232,88
-59,11	1187,82
-56,91	1214,45
-54,72	1298,41
-52,53	1220,59
-50,34	1273,84
-48,15	1118,19
-45,96	1259,50
-43,77	1140,72
-41,59	1300,46
-39,40	1118,19
-37,21	1263,60
-35,03	1224,69
-32,84	1286,12
-30,66	1466,35
-28,48	1271,79
-26,30	1290,22
-24,12	1402,86
-21,94	1425,39
-19,76	1720,29
-17,58	1923,04
-15,40	2971,60
-13,22	4560,83
-11,05	5709,74
-8,87	6295,46
-6,70	7284,62
-4,52	7874,44
-2,35	7268,24
-0,18	7718,79
1,99	7593,87
4,16	7163,79
6,33	6209,44
8,50	4863,93
10,67	3997,64
12,84	3487,69
15,00	3278,80
17,17	3168,21
19,33	3033,04
21,50	2566,10
23,66	2295,77
25,83	2154,46
27,99	1898,47
30,15	1773,54
32,31	1589,22
34,47	1398,76
36,63	1308,65
38,79	1312,75
40,94	1112,05
43,10	1370,09
45,25	1372,14
47,41	1372,14
49,56	1404,91
51,72	1333,23
53,87	1413,10
56,02	1521,64
58,17	1484,78
60,32	1576,94
62,47	1306,60
64,62	1259,50
66,77	1214,45
68,92	1292,27
71,06	1185,77
73,21	1191,92
75,35	1273,84
77,50	1320,94
79,64	1163,25
81,78	1300,46
83,92	1390,57
86,06	1218,54
88,20	1337,32
90,34	1107,95
92,48	1148,91
94,62	1445,87
96,76	1230,83
98,89	1329,13
101,03	1325,04
103,16	1343,47
105,30	1415,15
107,43	1378,28
109,56	1355,76
111,69	1286,12
113,82	1402,86
115,95	1431,53
118,08	1529,83
120,21	1304,56
122,34	1527,78
124,47	1310,70
126,59	1320,94
128,72	1495,02
130,84	1306,60
132,97	1191,92
135,09	1443,82
137,21	1554,41
139,33	1454,06
141,45	1581,03
143,57	1587,18
145,69	1718,25
147,81	1753,06
149,93	1798,12
152,05	1837,03
154,16	1728,49
156,28	1789,92
158,39	1812,45
160,51	1923,04
162,62	1738,73
164,73	1959,91
166,85	1968,10
168,96	1781,73
171,07	1933,28
173,18	1906,66
175,28	1992,67
177,39	2105,31
179,50	2027,49
181,61	1859,56
183,71	2047,97
185,82	1959,91
187,92	2033,63
190,02	2084,83
192,13	2076,64
194,23	2187,23
196,33	1951,71
198,43	2072,54
200,53	1994,72
202,63	2050,02
204,72	2103,26
206,82	1970,15
208,92	1992,67
211,01	2011,11
213,11	1984,48
215,20	1873,89
217,30	1802,21
219,39	1984,48
221,48	1837,03
223,57	1925,09
225,66	1966,05
227,75	1882,08
229,84	1877,99
231,93	1843,17
234,02	1959,91
236,10	1863,65
238,19	2043,87
240,28	1869,80
242,36	1941,47
244,44	1994,72
246,53	1828,84
248,61	1837,03
250,69	1902,56
252,77	1673,19
254,85	1841,12
256,93	1908,71
259,01	1773,54
261,09	1765,35
263,16	1929,19
265,24	1597,42
267,32	1751,01
269,39	1857,51
271,46	1812,45
273,54	1785,83
275,61	1791,97
277,68	1677,29
279,75	1542,12
281,82	1789,92
283,89	1714,15
285,96	1716,20
288,03	1597,42
290,10	1583,08
292,16	1560,55
294,23	1783,78
296,29	1640,42
298,36	1642,47
300,42	1476,59
302,49	1497,07
304,55	1753,06
306,61	1603,56
308,67	1490,92
310,73	1585,13
312,79	1505,26
314,85	1558,50
316,90	1568,74
318,96	1540,07
321,02	1677,29
323,07	1554,41
325,13	1699,81
327,18	1646,57
329,24	1464,30
331,29	1576,94
333,34	1474,54
335,39	1544,17
337,44	1366,00
339,49	1415,15
341,54	1421,29
343,59	1449,96
345,64	1566,70
347,68	1470,44
349,73	1419,24
351,77	1507,31
353,82	1628,14
355,86	1662,95
357,90	1550,31
359,95	1554,41
361,99	1595,37
364,03	1503,21
366,07	1687,53
368,11	1488,87
370,15	1464,30
372,19	1417,19
374,22	1472,49
376,26	1431,53
378,29	1431,53
380,33	1507,31
382,36	1636,33
384,40	1409,00
386,43	2349,02
388,46	1531,88
390,49	1404,91
392,52	1619,94
394,55	1671,14
396,58	1378,28
398,61	1497,07
400,64	1546,22
402,67	1570,79
404,69	1619,94
406,72	1712,10
408,74	1665,00
410,77	1726,44
412,79	1630,18
414,81	1581,03
416,84	1648,61
418,86	1632,23
420,88	1544,17
422,90	1468,39
424,92	1617,90
426,94	1597,42
428,95	1382,38
430,97	1581,03
432,99	1394,67
435,00	1511,40
437,02	1654,76
439,03	1550,31
441,04	1419,24
443,06	1345,52
445,07	1601,51
447,08	1521,64
449,09	1431,53
451,10	1484,78
453,11	1564,65
455,12	1599,46
457,13	1660,90
459,13	1572,84
461,14	1560,55
463,14	1570,79
465,15	1576,94
467,15	1435,63
469,16	1613,80
471,16	1527,78
473,16	1617,90
475,16	1568,74
477,16	1538,02
479,16	1458,15
481,16	1402,86
483,16	1472,49
485,16	1396,71
487,15	1562,60
489,15	1372,14
491,15	1341,42
493,14	1279,98
495,14	1343,47
497,13	1437,67
499,12	1452,01
501,11	1331,18
503,11	1460,20
505,10	1447,91
507,09	1388,52
509,07	1363,95
511,06	1284,08
513,05	1253,36
515,04	1357,80
517,02	1445,87
519,01	1366,00
521,00	1515,50
522,98	1398,76
524,96	1478,63
526,95	1435,63
528,93	1478,63
530,91	1507,30
532,89	1417,19
534,87	1517,54
536,85	1312,75
538,83	1394,67
540,81	1349,61
542,78	1286,12
544,76	1538,02
546,74	1337,32
548,71	1370,09
550,69	1404,91
552,66	1376,23
554,63	1212,40
556,60	1464,30
558,58	1322,99
560,55	1445,87
562,52	1443,82
564,49	1558,50
566,46	1366,00
568,42	1480,68
570,39	1378,28
572,36	1454,06
574,32	1470,44
576,29	1435,63
578,25	1398,76
580,22	1454,06
582,18	1306,60
584,14	1427,43
586,11	1425,39
588,07	1361,90
590,03	1507,31
591,99	1488,87
593,95	1480,68
595,90	1581,03
597,86	1368,04
599,82	1394,67
601,78	1419,24
603,73	1437,67
605,69	1439,72
607,64	1333,23
609,59	1406,95
611,55	1318,89
613,50	1325,04
615,45	1308,65
617,40	1294,32
619,35	1431,53
621,30	1529,83
623,25	1372,14
625,20	1333,23
627,15	1497,07
629,09	1474,54
631,04	1587,18
632,98	1439,72
634,93	1476,59
636,87	1372,14
638,82	1456,11
640,76	1433,58
642,70	1353,71
644,64	1335,28
646,58	1431,53
648,52	1419,24
650,46	1241,07
652,40	1288,17
654,34	1179,63
656,27	1366,00
658,21	1449,96
660,15	1208,30
662,08	1361,90
664,02	1507,31
665,95	1480,68
667,88	1284,08
669,82	1132,53
671,75	1220,59
673,68	1243,12
675,61	1396,71
677,54	1392,62
679,47	1423,34
681,40	1474,54
683,32	1437,67
685,25	1357,80
687,18	1259,50
689,10	1380,33
691,03	1200,11
692,95	1329,13
694,87	1431,53
696,80	1269,74
698,72	1173,49
700,64	1370,09
702,56	1314,80
704,48	1386,47
706,40	1343,47
708,32	1337,32
710,24	1331,18
712,16	1273,84
714,07	1415,15
715,99	1318,89
717,90	1286,12
719,82	1419,24
721,73	1411,05
723,65	1357,80
725,56	1302,51
727,47	1314,80
729,38	1427,43
731,29	1398,76
733,20	1224,69
735,11	1216,49
737,02	1236,97
738,93	1327,08
740,84	1273,84
742,74	1198,06
744,65	1075,18
746,55	1105,90
748,46	1460,20
750,36	1187,82
752,27	1212,40
754,17	1263,60
756,07	1343,47
757,97	1277,93
759,87	1212,40
761,77	1316,84
763,67	1277,93
765,57	1392,62
767,47	1157,10
769,37	1296,36
771,26	1347,56
773,16	1449,96
775,06	1470,44
776,95	1382,38
778,84	1472,49
780,74	1327,08
782,63	1374,19
784,52	1398,76
786,41	1480,68
788,30	1345,52
790,19	1329,13
792,08	1366,00
793,97	1421,29
795,86	1222,64
797,75	1484,78
799,63	1462,25
801,52	1425,39
803,41	1267,69
805,29	1255,40
807,18	1351,66
809,06	1253,36
810,94	1359,85
812,82	1341,42
814,70	1351,66
816,59	1261,55
818,47	1345,52
820,35	1370,09
822,22	1294,32
824,10	1570,79
825,98	1394,67
827,86	1296,36
829,73	1261,55
831,61	1220,59
833,48	1284,08
835,36	1261,55
837,23	1142,77
839,10	1454,06
840,98	1167,34
842,85	1349,61
844,72	1241,07
846,59	1390,57
848,46	1394,67
850,33	1388,52
852,20	1148,91
854,06	1439,72
855,93	1282,03
857,80	1404,91
859,66	1249,26
861,53	1449,96
863,39	1265,64
865,26	1347,56
867,12	1257,45
868,98	1249,26
870,84	1230,83
872,71	1396,71
874,57	1208,30
876,43	1163,25
878,29	1251,31
880,14	1191,92
882,00	1230,83
883,86	1511,40
885,72	1271,79
887,57	1253,36
889,43	1322,99
891,28	1308,65
893,14	1306,60
894,99	1513,45
896,84	1382,38
898,69	1368,04
900,55	1347,56
902,40	1476,59
904,25	1218,54
906,10	1218,54
907,95	1343,47
909,79	1400,81
911,64	1312,75
913,49	1472,49
915,34	1318,89
917,18	1374,19
919,03	1378,28
920,87	1292,27
922,71	1335,28
924,56	1153,01
926,40	1277,93
928,24	1183,73
930,08	1312,75
931,92	1298,41
933,76	1263,60
935,60	1288,17
937,44	1368,04
939,28	1353,71
941,12	1427,43
942,95	1302,51
944,79	1404,91
946,62	1394,67
948,46	1392,62
950,29	1210,35
952,13	1308,65
953,96	1255,40
955,79	1376,23
957,62	1165,29
959,46	1318,89
961,29	1343,47
963,12	1234,93
964,94	1241,07
966,77	1372,14
968,60	1251,31
970,43	1322,99
972,25	1337,32
974,08	1298,41
975,91	1378,28
977,73	1374,19
979,55	1544,17
981,38	1394,67
983,20	1210,35
985,02	1298,41
986,84	1263,60
988,66	1396,71
990,49	1087,47
992,30	1261,55
994,12	1486,83
995,94	1433,58
997,76	1415,15
999,58	1480,68
1001,39	1214,45
1003,21	1419,24
1005,02	1337,32
1006,84	1347,56
1008,65	1447,91
1010,47	1308,65
1012,28	1374,19
1014,09	1415,15
1015,90	1374,19
1017,71	1484,78
1019,52	1433,58
1021,33	1409,00
1023,14	1378,28
1024,95	1314,80
1026,76	1394,67
1028,56	1314,80
1030,37	1333,23
1032,18	1505,26
1033,98	1333,23
1035,79	1370,09
1037,59	1273,84
1039,39	1294,32
1041,20	1335,28
1043,00	1318,89
1044,80	1331,18
1046,60	1339,37
1048,40	1411,05
1050,20	1234,93
1052,00	1245,16
1053,80	1277,93
1055,59	1325,04
1057,39	1402,86
1059,19	1253,36
1060,98	1339,37
1062,78	1279,98
1064,57	1343,47
1066,37	1331,18
1068,16	1257,45
1069,95	1355,76
1071,75	1263,60
1073,54	1228,78
1075,33	1226,73
1077,12	1314,80
1078,91	1257,45
1080,70	1411,05
1082,48	1312,75
1084,27	1193,97
1086,06	1284,08
1087,85	1214,45
1089,63	1177,58
1091,42	1277,93
1093,20	1198,06
1094,99	1351,66
1096,77	1431,53
1098,55	1351,66
1100,33	1433,58
1102,12	1470,44
1103,90	1396,71
1105,68	1376,24
1107,46	1454,06
1109,24	1480,68
1111,01	1497,07
1112,79	1462,25
1114,57	1288,17
1116,35	1310,70
1118,12	1159,15
1119,90	1247,21
1121,67	1363,95
1123,45	1384,43
1125,22	1386,47
1126,99	1396,71
1128,77	1265,64
1130,54	1427,43
1132,31	1353,71
1134,08	1574,89
1135,85	1423,34
1137,62	1423,34
1139,39	1349,61
1141,15	1421,29
1142,92	1445,87
1144,69	1472,49
1146,46	1472,49
1148,22	1511,40
1149,99	1523,69
1151,75	1310,70
1153,51	1259,50
1155,28	1402,86
1157,04	1382,38
1158,80	1388,52
1160,56	1376,24
1162,32	1275,88
1164,08	1234,93
1165,84	1409,00
1167,60	1218,54
1169,36	1351,66
1171,12	1261,55
1172,88	1333,23
1174,63	1239,02
1176,39	1322,99
1178,14	1296,36
1179,90	1163,25
1181,65	1279,98
1183,41	1284,08
1185,16	1208,30
1186,91	1347,56
1188,66	1456,11
1190,41	1216,49
1192,16	1189,87
1193,91	1304,56
1195,66	1476,59
1197,41	1187,82
1199,16	1392,62
1200,91	1368,04
1202,66	1417,19
1204,40	1466,35
1206,15	1351,66
1207,89	1368,04
1209,64	1245,16
1211,38	1316,84
1213,12	1372,14
1214,87	1398,76
1216,61	1370,09
1218,35	1296,36
1220,09	1296,36
1221,83	1239,02
1223,57	1306,60
1225,31	1349,61
1227,05	1189,87
1228,79	1175,53
1230,52	1421,29
1232,26	1359,85
1234,00	1267,69
1235,73	1380,33
1237,47	1363,95
1239,20	1353,71
1240,94	1361,90
1242,67	1366,00
1244,40	1378,28
1246,13	1339,37
1247,86	1316,84
1249,60	1363,95
1251,33	1413,10
1253,06	1226,73
1254,78	1337,32
1256,51	1335,28
1258,24	1249,26
1259,97	1202,16
1261,69	1398,76
1263,42	1366,00
1265,15	1409,00
1266,87	1304,56
1268,59	1200,11
1270,32	1193,97
1272,04	1198,06
1273,76	1310,70
1275,49	1232,88
1277,21	1271,79
1278,93	1259,50
1280,65	1302,51
1282,37	1333,23
1284,09	1271,79
1285,81	1228,78
1287,52	1279,98
1289,24	1187,82
1290,96	1124,33
1292,67	1368,04
1294,39	1179,63
1296,10	1296,36
1297,82	1394,67
1299,53	1239,02
1301,24	1368,04
1302,96	1226,73
1304,67	1359,85
1306,38	1429,48
1308,09	1372,14
1309,80	1198,06
1311,51	1236,97
1313,22	1218,54
1314,93	1224,69
1316,64	1310,70
1318,34	1130,48
1320,05	1216,49
1321,75	1120,24
1323,46	1347,56
1325,17	1298,41
1326,87	1265,64
1328,57	1255,40
1330,28	1216,49
1331,98	1185,77
1333,68	1304,56
1335,38	1331,18
1337,08	1198,06
1338,78	1304,56
1340,48	1359,85
1342,18	1196,01
1343,88	1304,56
1345,58	1173,49
1347,28	1294,32
1348,97	1196,01
1350,67	1132,53
1352,36	1050,61
1354,06	1064,94
1355,75	1140,72
1357,45	1187,82
1359,14	1165,29
1360,83	1226,73
1362,53	1142,77
1364,22	1210,35
1365,91	1273,84
1367,60	1302,51
1369,29	1279,98
1370,98	1204,21
1372,67	1165,29
1374,35	1302,51
1376,04	1300,46
1377,73	1329,13
1379,41	1239,02
1381,10	1267,69
1382,79	1177,58
1384,47	1167,34
1386,15	1452,01
1387,84	1200,11
1389,52	1167,34
1391,20	1320,94
1392,88	1331,18
1394,57	1331,18
1396,25	1150,96
1397,93	1302,51
1399,61	1107,95
1401,28	1239,02
1402,96	1349,61
1404,64	1462,25
1406,32	1239,02
1407,99	1318,89
1409,67	1433,58
1411,35	1273,84
1413,02	1322,99
1414,70	1206,25
1416,37	1210,35
1418,04	1132,53
1419,71	1277,93
1421,39	1339,37
1423,06	1165,29
1424,73	1239,02
1426,40	1269,74
1428,07	1259,50
1429,74	1210,35
1431,41	1177,58
1433,08	1366,00
1434,74	1249,26
1436,41	1232,88
1438,08	1251,31
1439,74	1163,25
1441,41	1355,76
1443,07	1228,78
1444,74	1320,94
1446,40	1206,25
1448,06	1196,01
1449,72	1206,25
1451,39	1296,36
1453,05	1322,99
1454,71	1279,98
1456,37	1308,65
1458,03	1224,69
1459,69	1439,72
1461,35	1273,84
1463,00	1337,32
1464,66	1089,52
1466,32	1273,84
1467,97	1277,93
1469,63	1376,24
1471,28	1325,04
1472,94	1243,12
1474,59	1331,18
1476,25	1193,97
1477,90	1359,85
1479,55	1236,97
1481,20	1427,43
1482,85	1361,90
1484,50	1314,80
1486,15	1331,18
1487,80	1501,16
1489,45	1363,95
1491,10	1206,25
1492,75	1296,36
1494,40	1378,28
1496,04	1351,66
1497,69	1271,79
1499,33	1222,64
1500,98	1208,30
1502,62	1390,57
1504,27	1376,23
1505,91	1335,28
1507,55	1226,73
1509,19	1359,85
1510,84	1306,60
1512,48	1245,16
1514,12	1241,07
1515,76	1226,73
1517,40	1239,02
1519,04	1335,28
1520,67	1136,62
1522,31	1263,60
1523,95	1636,33
1525,59	1247,21
1527,22	1269,74
1528,86	1398,76
1530,49	1347,56
1532,13	1351,66
1533,76	1353,71
1535,39	1273,84
1537,03	1179,63
1538,66	1210,35
1540,29	1167,34
1541,92	1228,78
1543,55	1196,01
1545,18	1206,25
1546,81	1386,47
1548,44	1320,94
1550,07	1329,13
1551,70	1267,69
1553,32	1277,93
1554,95	1382,38
1556,58	1275,88
1558,20	1363,95
1559,83	1167,34
1561,45	1128,43
1563,07	1105,90
1564,70	1263,60
1566,32	1269,74
1567,94	1103,86
1569,56	1239,02
1571,19	1220,59
1572,81	1271,79
1574,43	1345,52
1576,05	1142,77
1577,66	1329,13
1579,28	1189,87
1580,90	1277,93
1582,52	1398,76
1584,14	1316,84
1585,75	1335,28
1587,37	1341,42
1588,98	1226,73
1590,60	1341,42
1592,21	1165,29
1593,82	1224,69
1595,44	1187,82
1597,05	1294,32
1598,66	1294,32
1600,27	1314,80
1601,88	1318,89
1603,49	5277,62
1605,10	1153,01
1606,71	1114,10
1608,32	1222,64
1609,93	1279,98
1611,54	1224,69
1613,14	1220,59
1614,75	1226,73
1616,36	1392,62
1617,96	1247,21
1619,57	1148,91
1621,17	1220,59
1622,77	1134,57
1624,38	1218,54
1625,98	1103,86
1627,58	1050,61
1629,18	1232,88
1630,78	1132,53
1632,38	1263,60
1633,98	1196,01
1635,58	1236,97
1637,18	1312,75
1638,78	1132,53
1640,38	1304,56
1641,98	1310,70
1643,57	1175,53
1645,17	1236,97
1646,76	1230,83
1648,36	1136,62
1649,95	1286,12
1651,55	1210,35
1653,14	1294,32
1654,73	1263,60
1656,33	1206,25
1657,92	1222,64
1659,51	1136,62
1661,10	1130,48
1662,69	1179,63
1664,28	1249,26
1665,87	1132,53
1667,46	1196,01
1669,05	1073,14
1670,63	1105,90
1672,22	1075,18
1673,81	1183,73
1675,39	1341,42
1676,98	1228,78
1678,56	1013,74
1680,15	1173,49
1681,73	1140,72
1683,31	1181,68
1684,90	1118,19
1686,48	1273,84
1688,06	1208,30
1689,64	1271,79
1691,22	1206,25
1692,80	1396,71
1694,38	1331,18
1695,96	1058,80
1697,54	1114,10
1699,12	1259,50
1700,69	1177,58
1702,27	1249,26
1703,85	1310,70
1705,42	1138,67
1707,00	1050,61
1708,57	1187,82
1710,15	1210,35
1711,72	1169,39
1713,29	1173,49
1714,87	1112,05
1716,44	1234,93
1718,01	1212,40
1719,58	989,17
1721,15	1071,09
1722,72	1189,87
1724,29	1302,51
1725,86	1189,87
1727,43	1243,12
1729,00	1200,11
1730,56	1169,39
1732,13	1284,08
1733,70	1118,19
1735,26	1161,20
1736,83	1220,59
1738,39	1089,52
1739,96	1325,04
1741,52	1275,88
1743,08	1150,96
1744,65	1198,06
1746,21	1048,56
1747,77	1263,60
1749,33	1236,97
1750,89	1255,40
1752,45	1228,78
1754,01	1247,21
1755,57	1196,01
1757,13	1282,03
1758,69	1132,53
1760,24	1054,70
1761,80	1230,83
1763,36	1175,53
1764,91	1030,13
1766,47	1150,96
1768,02	1077,23
1769,58	1112,05
1771,13	1064,94
1772,68	1038,32
1774,24	1140,72
1775,79	1056,75
1777,34	1247,21
1778,89	1132,53
1780,44	1134,57
1781,99	1099,76
1783,54	1155,05
1785,09	1099,76
1786,64	1191,92
1788,19	1265,64
1789,73	1155,05
1791,28	1140,72
1792,83	1101,81
1794,37	1236,97
1795,92	1198,06
1797,46	1056,75
1799,01	1040,37
1800,55	1253,36
1802,09	1267,69
1803,64	1210,35
1805,18	1120,24
1806,72	1044,46
1808,26	1200,11
1809,80	1077,23
1811,34	1230,83
1812,88	1187,82
1814,42	1081,33
1815,96	1091,57
1817,50	1216,49
1819,04	1253,36
1820,57	1116,14
1822,11	1056,75
1823,65	1077,23
1825,18	1052,66
1826,72	1177,58
1828,25	1302,51
1829,78	1128,43
1831,32	1193,97
1832,85	1030,13
1834,38	1183,73
1835,92	1032,18
1837,45	1144,81
1838,98	1300,46
1840,51	1200,11
1842,04	1206,25
1843,57	1255,40
1845,10	1142,77
1846,62	1187,82
1848,15	1015,79
1849,68	1110,00
1851,21	1261,55
1852,73	1228,78
1854,26	1071,09
1855,78	1202,16
1857,31	1193,97
1858,83	1320,94
1860,36	1046,51
1861,88	1085,42
1863,40	1056,75
1864,92	1196,01
1866,45	1089,52
1867,97	1163,25
1869,49	1110,00
1871,01	1132,53
1872,53	1130,48
1874,05	997,36
1875,57	1202,16
1877,08	1177,58
1878,60	1245,16
1880,12	1140,72
1881,64	1169,39
1883,15	1042,42
1884,67	1056,75
1886,18	1060,85
1887,70	1224,69
1889,21	1120,24
1890,72	987,12
1892,24	1153,01
1893,75	1146,86
1895,26	1148,91
1896,77	1372,14
1898,28	1142,77
1899,79	1030,13
1901,30	1128,43
1902,81	1204,21
1904,32	1187,82
1905,83	1318,89
1907,34	1335,28
1908,85	1091,57
1910,35	1191,92
1911,86	1165,29
1913,37	1144,81
1914,87	1171,44
1916,38	974,83
1917,88	991,22
1919,39	1103,86
1920,89	1044,46
1922,39	1124,33
1923,89	1136,62
1925,40	1079,28
1926,90	1206,25
1928,40	1171,44
1929,90	1110,00
1931,40	1179,63
1932,90	1110,00
1934,40	1185,77
1935,90	1040,37
1937,39	991,22
1938,89	1099,76
1940,39	1009,65
1941,89	948,21
1943,38	1034,22
1944,88	956,40
1946,37	1050,61
1947,87	1116,14
1949,36	1191,92
1950,85	897,01
1952,35	999,41
1953,84	1114,09
1955,33	1132,53
1956,82	1077,23
1958,31	1204,21
1959,80	1005,55
1961,29	1153,01
1962,78	1114,10
1964,27	1159,15
1965,76	1017,84
1967,25	1187,82
1968,74	901,11
1970,22	1112,05
1971,71	1075,18
1973,20	1079,28
1974,68	1044,46
1976,17	1181,68
1977,65	1079,28
1979,14	1083,38
1980,62	919,54
1982,10	1034,22
1983,58	1144,81
1985,07	1204,21
1986,55	1071,09
1988,03	923,63
1989,51	1091,57
1990,99	1060,85
1992,47	1075,18
1993,95	993,26
1995,43	1187,82
1996,91	1052,66
1998,38	1099,76
1999,86	1185,77
2001,34	1056,75
2002,81	1114,09
2004,29	1089,52
2005,76	1077,23
2007,24	999,41
2008,71	1026,03
2010,19	1021,94
2011,66	942,07
2013,13	882,67
2014,60	1038,32
2016,08	1026,03
2017,55	1099,76
2019,02	1064,94
2020,49	1153,01
2021,96	1105,90
2023,43	1036,27
2024,90	958,45
2026,36	935,92
2027,83	997,36
2029,30	942,07
2030,77	1093,62
2032,23	849,91
2033,70	1169,39
2035,16	1001,46
2036,63	1046,51
2038,09	1036,27
2039,56	989,17
2041,02	1177,58
2042,48	1013,74
2043,95	1126,38
2045,41	1046,51
2046,87	1132,53
2048,33	1116,14
2049,79	1110,00
2051,25	1157,10
2052,71	1161,20
2054,17	1073,14
2055,63	974,83
2057,09	1085,42
2058,54	976,88
2060,00	1052,66
2061,46	1183,73
2062,91	1001,46
2064,37	1177,58
2065,82	1064,94
2067,28	1122,29
2068,73	1028,08
2070,19	1011,70
2071,64	1126,38
2073,09	1114,10
2074,54	997,36
2076,00	1095,66
2077,45	958,45
2078,90	866,29
2080,35	911,35
2081,80	1011,70
2083,25	999,41
2084,70	989,17
2086,14	927,73
2087,59	954,35
2089,04	954,35
2090,49	851,95
2091,93	933,87
2093,38	886,77
2094,83	997,36
2096,27	1011,70
2097,71	972,79
2099,16	987,12
2100,60	874,48
2102,05	1034,22
2103,49	935,92
2104,93	1032,18
2106,37	976,88
2107,81	993,26
2109,25	868,34
2110,69	1003,50
2112,13	831,48
2113,57	999,41
2115,01	1038,32
2116,45	983,03
2117,89	1038,32
2119,33	985,07
2120,76	1030,13
2122,20	1087,47
2123,63	999,41
2125,07	1007,60
2126,51	1054,70
2127,94	1048,56
2129,37	888,82
2130,81	980,98
2132,24	616,44
2133,67	954,35
2135,11	894,96
2136,54	1019,89
2137,97	978,93
2139,40	946,16
2140,83	917,49
2142,26	995,31
2143,69	915,44
2145,12	1036,27
2146,55	1013,74
2147,97	944,11
2149,40	1017,84
2150,83	1077,23
2152,25	991,22
2153,68	892,91
2155,11	1075,18
2156,53	1005,55
2157,96	1153,01
2159,38	952,31
2160,80	1034,22
2162,23	827,38
2163,65	1032,18
2165,07	1089,52
2166,49	919,54
2167,91	1023,98
2169,33	1089,52
2170,75	872,43
2172,17	1148,91
2173,59	960,50
2175,01	1050,61
2176,43	1015,79
2177,85	815,09
2179,27	968,69
2180,68	872,43
2182,10	950,26
2183,52	804,85
2184,93	1011,70
2186,35	1243,12
2187,76	944,11
2189,18	907,25
2190,59	950,26
2192,00	1089,52
2193,42	913,39
2194,83	1054,70
2196,24	806,90
2197,65	897,01
2199,06	423,93
2200,47	929,78
2201,88	913,39
2203,29	819,19
2204,70	911,35
2206,11	937,97
2207,52	931,83
2208,93	1044,46
2210,33	761,84
2211,74	1030,13
2213,15	1120,24
2214,55	1066,99
2215,96	1048,56
2217,36	831,48
2218,77	827,38
2220,17	999,41
2221,57	851,95
2222,98	747,51
2224,38	952,31
2225,78	1060,85
2227,18	1023,98
2228,58	856,05
2229,99	808,95
2231,39	1066,99
2232,79	845,81
2234,18	1075,18
2235,58	1011,70
2236,98	845,81
2238,38	917,49
2239,78	929,78
2241,17	1026,03
2242,57	888,82
2243,97	886,77
2245,36	856,05
2246,76	901,11
2248,15	911,35
2249,55	954,35
2250,94	899,06
2252,33	948,21
2253,73	956,40
2255,12	819,19
2256,51	837,62
2257,90	843,76
2259,29	1167,34
2260,68	1058,80
2262,07	933,87
2263,46	823,28
2264,85	1009,65
2266,24	937,97
2267,63	950,26
2269,02	897,01
2270,40	1105,90
2271,79	694,26
2273,18	1032,18
2274,56	872,43
2275,95	962,55
2277,33	819,19
2278,72	958,45
2280,10	1085,42
2281,49	1146,86
2282,87	1071,09
2284,25	901,11
2285,63	1026,03
2287,02	903,15
2288,40	860,15
2289,78	964,59
2291,16	991,22
2292,54	894,96
2293,92	911,35
2295,30	925,68
2296,68	925,68
2298,05	960,50
2299,43	1032,18
2300,81	817,14
2302,19	917,49
2303,56	983,03
2304,94	905,20
2306,31	976,88
2307,69	903,15
2309,06	1210,35
2310,44	1044,46
2311,81	915,44
2313,19	1073,14
2314,56	927,73
2315,93	763,89
2317,30	1046,51
2318,67	1030,13
2320,04	940,02
2321,41	985,07
2322,78	1122,29
2324,15	1087,47
2325,52	989,17
2326,89	878,58
2328,26	1128,43
2329,63	950,26
2331,00	997,36
2332,36	993,26
2333,73	940,02
2335,09	1017,84
2336,46	1134,57
2337,83	1019,89
2339,19	942,07
2340,55	915,44
2341,92	1071,09
2343,28	1066,99
2344,64	921,59
2346,01	1069,04
2347,37	1064,94
2348,73	1091,57
2350,09	1069,04
2351,45	1267,69
2352,81	1058,80
2354,17	9539,44
2355,53	1216,49
2356,89	1114,09
2358,25	1042,42
2359,61	1034,22
2360,96	1093,62
2362,32	1110,00
2363,68	1073,14
2365,03	1234,93
2366,39	1185,77
2367,74	1224,69
2369,10	1204,21
2370,45	1232,88
2371,81	1187,82
2373,16	1136,62
2374,51	1236,97
2375,86	1130,48
2377,22	1126,38
2378,57	1366,00
2379,92	1103,86
2381,27	999,41
2382,62	1183,73
2383,97	1218,54
2385,32	1255,40
2386,67	1103,86
2388,02	1220,59
2389,37	1163,25
2390,71	1173,49
2392,06	1157,10
2393,41	1153,01
2394,75	1144,81
2396,10	1232,88
2397,44	1253,36
2398,79	1259,50
2400,13	1245,16
2401,48	1138,67
2402,82	1140,72
2404,17	1124,33
2405,51	1263,60
2406,85	1095,66
2408,19	1173,49
2409,53	1228,78
2410,87	1128,43
2412,22	1146,86
2413,56	1236,97
2414,89	1189,87
2416,23	1132,53
2417,57	1273,84
2418,91	1210,35
2420,25	1343,47
2421,59	1204,21
2422,92	1486,83
2424,26	1183,73
2425,60	1284,08
2426,93	1159,15
2428,27	1263,60
2429,60	1296,36
2430,94	1226,73
2432,27	1374,19
2433,60	1265,64
2434,94	1247,21
2436,27	1228,78
2437,60	1353,71
2438,93	1284,08
2440,27	1394,67
2441,60	1259,50
2442,93	1431,53
2444,26	1380,33
2445,59	1341,42
2446,92	1269,74
2448,24	1292,27
2449,57	1308,65
2450,90	1284,08
2452,23	1243,12
2453,55	1400,81
2454,88	1327,08
2456,21	1366,00
2457,53	1490,92
2458,86	1525,74
2460,18	1329,13
2461,51	1363,95
2462,83	1269,74
2464,15	1449,96
2465,48	1300,46
2466,80	1419,24
2468,12	1366,00
2469,44	1503,21
2470,76	1357,80
2472,09	1413,10
2473,41	1478,63
2474,73	1454,06
2476,05	1415,15
2477,36	1429,48
2478,68	1394,67
2480,00	1601,51
2481,32	1507,31
2482,64	1570,79
2483,95	1427,43
2485,27	1619,94
2486,59	1548,26
2487,90	1628,14
2489,22	1484,78
2490,53	1593,32
2491,85	1521,64
2493,16	1726,44
2494,47	1695,72
2495,79	1658,85
2497,10	1789,92
2498,41	1572,84
2499,72	1693,67
2501,03	1810,40
2502,35	1525,74
2503,66	1615,85
2504,97	1724,39
2506,28	1820,64
2507,59	1734,63
2508,89	1818,60
2510,20	1902,56
2511,51	1851,36
2512,82	1804,26
2514,12	1677,29
2515,43	1888,23
2516,74	1791,97
2518,04	1845,22
2519,35	1798,12
2520,65	1787,88
2521,96	1873,89
2523,26	1775,59
2524,57	1898,47
2525,87	1992,67
2527,17	1910,75
2528,47	1994,72
2529,78	1875,94
2531,08	1916,90
2532,38	2017,25
2533,68	1841,12
2534,98	1867,75
2536,28	1732,58
2537,58	1724,39
2538,88	1875,94
2540,18	1691,62
2541,47	2076,64
2542,77	1810,40
2544,07	1765,35
2545,37	1939,43
2546,66	1804,26
2547,96	1734,63
2549,25	2031,58
2550,55	1853,41
2551,84	1824,74
2553,14	1736,68
2554,43	1857,51
2555,72	1925,09
2557,02	1660,90
2558,31	1705,96
2559,60	1818,60
2560,89	1910,75
2562,18	1886,18
2563,48	1781,73
2564,77	1748,97
2566,06	1929,19
2567,35	1662,95
2568,63	1683,43
2569,92	1787,88
2571,21	1710,05
2572,50	1826,79
2573,79	1902,56
2575,07	1677,29
2576,36	1845,22
2577,65	1759,21
2578,93	1611,75
2580,22	1832,93
2581,50	1658,85
2582,79	1642,47
2584,07	1732,58
2585,36	1712,10
2586,64	1703,91
2587,92	1665,00
2589,20	1822,69
2590,49	1675,24
2591,77	1505,26
2593,05	1650,66
2594,33	1691,62
2595,61	1679,33
2596,89	1757,16
2598,17	1822,69
2599,45	1734,63
2600,73	1535,98
2602,00	1529,83
2603,28	1525,74
2604,56	1605,61
2605,84	1626,09
2607,11	1458,15
2608,39	1728,49
2609,67	1492,97
2610,94	1613,80
2612,22	1562,60
2613,49	1603,56
2614,76	1521,64
2616,04	1417,19
2617,31	1558,50
2618,58	1411,05
2619,86	1460,20
2621,13	1722,34
2622,40	1525,74
2623,67	1527,78
2624,94	1433,58
2626,21	1535,98
2627,48	1490,92
2628,75	1298,41
2630,02	1384,43
2631,29	1464,30
2632,56	1355,76
2633,82	1472,49
2635,09	1314,80
2636,36	1347,56
2637,63	1376,23
2638,89	1290,22
2640,16	1437,67
2641,42	1331,18
2642,69	1306,60
2643,95	1452,01
2645,22	1239,02
2646,48	1253,36
2647,74	1556,46
2649,01	1345,52
2650,27	1103,86
2651,53	1257,45
2652,79	1210,35
2654,05	1310,70
2655,31	1263,60
2656,57	1239,02
2657,83	1134,57
2659,09	1296,36
2660,35	1263,60
2661,61	1105,90
2662,87	1075,18
2664,13	1175,53
2665,38	1304,56
2666,64	1191,92
2667,90	1079,28
2669,15	1144,81
2670,41	1148,91
2671,67	1183,73
2672,92	1239,02
2674,17	1241,07
2675,43	1130,48
2676,68	1048,56
2677,94	1058,80
2679,19	1245,16
2680,44	1271,79
2681,69	1085,42
2682,95	1021,94
2684,20	1216,49
2685,45	1062,90
2686,70	1073,14
2687,95	1138,67
2689,20	1003,50
2690,45	999,41
2691,70	1023,98
2692,94	1034,22
2694,19	1110,00
2695,44	1110,00
2696,69	1105,90
2697,93	899,06
2699,18	937,97
2700,43	1048,56
2701,67	927,73
2702,92	860,15
2704,16	1103,86
2705,41	1093,62
2706,65	1034,22
2707,89	1017,84
2709,14	913,39
2710,38	970,74
2711,62	1095,66
2712,86	749,56
2714,11	974,83
2715,35	886,77
2716,59	868,34
2717,83	825,33
2719,07	765,94
2720,31	743,41
2721,55	815,09
2722,78	1032,18
2724,02	935,92
2725,26	845,81
2726,50	862,19
2727,73	739,32
2728,97	901,11
2730,21	792,56
2731,44	819,19
2732,68	673,78
2733,91	688,12
2735,15	806,90
2736,38	745,46
2737,62	983,02
2738,85	784,37
2740,08	880,63
2741,32	841,72
2742,55	767,99
2743,78	686,07
2745,01	671,73
2746,24	673,78
2747,47	819,19
2748,70	827,38
2749,93	724,98
2751,16	747,51
2752,39	716,79
2753,62	702,45
2754,85	759,80
2756,08	759,80
2757,30	616,44
2758,53	968,69
2759,76	684,02
2760,98	651,25
2762,21	761,84
2763,43	604,15
2764,66	696,31
2765,88	837,62
2767,11	741,36
2768,33	577,53
2769,55	823,28
2770,78	716,79
2772,00	696,31
2773,22	747,51
2774,44	583,67
2775,67	806,90
2776,89	825,33
2778,11	720,89
2779,33	653,30
2780,55	630,77
2781,77	661,49
2782,99	741,36
2784,20	661,49
2785,42	679,93
2786,64	694,26
2787,86	681,97
2789,07	716,79
2790,29	765,94
2791,51	737,27
2792,72	802,80
2793,94	708,60
2795,15	677,88
2796,37	716,79
2797,58	815,09
2798,80	626,68
2800,01	688,12
2801,22	540,66
2802,44	729,08
2803,65	796,66
2804,86	571,38
2806,07	727,03
2807,28	784,37
2808,49	612,34
2809,70	612,34
2810,91	671,73
2812,12	690,17
2813,33	784,37
2814,54	628,73
2815,75	647,16
2816,96	620,53
2818,16	720,89
2819,37	661,49
2820,58	671,73
2821,78	716,79
2822,99	632,82
2824,20	757,75
2825,40	849,91
2826,61	745,46
2827,81	636,92
2829,01	823,28
2830,22	661,49
2831,42	624,63
2832,62	704,50
2833,83	671,73
2835,03	854,00
2836,23	749,56
2837,43	757,75
2838,63	694,26
2839,83	759,80
2841,03	706,55
2842,23	557,05
2843,43	669,69
2844,63	614,39
2845,83	720,89
2847,03	696,31
2848,22	636,92
2849,42	745,46
2850,62	774,13
2851,81	747,51
2853,01	655,35
2854,21	632,82
2855,40	667,64
2856,60	612,34
2857,79	641,01
2858,99	667,64
2860,18	651,25
2861,37	507,90
2862,57	618,49
2863,76	710,65
2864,95	626,68
2866,14	643,06
2867,33	677,88
2868,52	645,11
2869,72	811,00
2870,91	735,22
2872,10	653,30
2873,28	706,55
2874,47	745,46
2875,66	149,50
2876,85	761,84
2878,04	679,93
2879,23	579,58
2880,41	798,71
2881,60	727,03
2882,79	702,45
2883,97	573,43
2885,16	757,75
2886,34	790,52
2887,53	739,32
2888,71	657,40
2889,90	794,61
2891,08	774,13
2892,26	540,66
2893,45	849,91
2894,63	710,65
2895,81	612,34
2896,99	739,32
2898,17	550,90
2899,36	626,68
2900,54	833,52
2901,72	655,35
2902,90	724,98
2904,08	636,92
2905,26	604,15
2906,43	561,14
2907,61	733,17
2908,79	622,58
2909,97	557,05
2911,14	694,26
2912,32	708,60
2913,50	729,08
2914,67	718,84
2915,85	679,93
2917,02	700,41
2918,20	493,56
2919,37	778,23
2920,55	589,82
2921,72	600,05
2922,90	651,25
2924,07	716,79
2925,24	688,12
2926,41	665,59
2927,58	790,52
2928,76	573,43
2929,93	792,56
2931,10	653,30
2932,27	712,69
2933,44	630,77
2934,61	649,21
2935,78	608,25
2936,95	647,16
2938,11	716,79
2939,28	649,21
2940,45	665,59
2941,62	591,86
2942,78	710,65
2943,95	708,60
2945,12	657,40
2946,28	673,78
2947,45	559,10
2948,61	759,80
2949,78	800,76
2950,94	653,30
2952,10	626,68
2953,27	718,84
2954,43	745,46
2955,59	763,89
2956,76	712,69
2957,92	610,29
2959,08	622,58
2960,24	634,87
2961,40	622,58
2962,56	704,50
2963,72	593,91
2964,88	729,08
2966,04	667,64
2967,20	485,37
2968,36	643,06
2969,52	438,27
2970,67	733,17
2971,83	718,84
2972,99	587,77
2974,14	616,44
2975,30	579,58
2976,46	737,27
2977,61	677,88
2978,77	739,32
2979,92	481,27
2981,08	714,74
2982,23	753,65
2983,38	587,77
2984,54	743,41
2985,69	690,17
2986,84	681,97
2987,99	555,00
2989,15	538,62
2990,30	737,27
2991,45	641,01
2992,60	610,29
2993,75	667,64
2994,90	708,60
2996,05	663,54
2997,20	456,70
2998,35	657,40
2999,49	608,25
3000,64	634,87
3001,79	641,01
3002,94	702,45
3004,08	798,71
3005,23	677,88
3006,38	636,92
3007,52	776,18
3008,67	526,33
3009,81	604,15
3010,96	548,86
3012,10	565,24
3013,25	630,77
3014,39	755,70
3015,53	686,07
3016,67	843,76
3017,82	569,34
3018,96	708,60
3020,10	536,57
3021,24	565,24
3022,38	493,56
3023,52	616,44
3024,66	589,82
3025,80	645,11
3026,94	487,42
3028,08	653,30
3029,22	739,32
3030,36	622,58
3031,50	618,49
3032,63	821,24
3033,77	583,67
3034,91	489,46
3036,04	755,70
3037,18	716,79
3038,32	767,99
3039,45	489,46
3040,59	626,68
3041,72	780,28
3042,86	583,67
3043,99	567,29
3045,12	733,17
3046,26	475,13
3047,39	559,10
3048,52	708,60
3049,65	733,17
3050,78	655,35
3051,92	485,37
3053,05	679,93
3054,18	630,77
3055,31	702,45
3056,44	694,26
3057,57	712,69
3058,70	628,73
3059,82	542,71
3060,95	507,90
3062,08	569,34
3063,21	636,92
3064,34	641,01
3065,46	636,92
3066,59	677,88
3067,71	624,63
3068,84	583,67
3069,97	485,37
3071,09	606,20
3072,22	630,77
3073,34	636,92
3074,46	673,78
3075,59	645,11
3076,71	620,53
3077,83	632,82
3078,96	667,64
3080,08	634,87
3081,20	655,35
3082,32	665,59
3083,44	587,77
3084,56	573,43
3085,68	636,92
3086,80	661,49
3087,92	544,76
3089,04	473,08
3090,16	716,79
3091,28	714,74
3092,40	614,39
3093,51	634,87
3094,63	772,08
3095,75	651,25
3096,87	516,09
3097,98	702,45
3099,10	606,20
3100,21	755,70
3101,33	645,11
3102,44	841,72
3103,56	530,42
3104,67	550,90
3105,79	698,36
3106,90	505,85
3108,01	776,18
3109,12	606,20
3110,24	784,37
3111,35	632,82
3112,46	681,97
3113,57	698,36
3114,68	684,02
3115,79	686,07
3116,90	509,94
3118,01	724,98
3119,12	716,79
3120,23	585,72
3121,34	458,74
3122,45	440,31
3123,56	661,49
3124,66	563,19
3125,77	786,42
3126,88	692,21
3127,98	630,77
3129,09	569,34
3130,20	563,19
3131,30	653,30
3132,41	686,07
3133,51	544,76
3134,61	503,80
3135,72	692,21
3136,82	614,39
3137,93	561,14
3139,03	505,85
3140,13	751,60
3141,23	641,01
3142,33	722,93
3143,44	612,34
3144,54	593,91
3145,64	792,56
3146,74	573,43
3147,84	643,06
3148,94	509,94
3150,04	561,14
3151,14	751,60
3152,23	501,75
3153,33	628,73
3154,43	575,48
3155,53	620,53
3156,63	595,96
3157,72	653,30
3158,82	589,82
3159,91	663,54
3161,01	495,61
3162,11	565,24
3163,20	475,13
3164,30	473,08
3165,39	600,05
3166,48	657,40
3167,58	700,41
3168,67	733,17
3169,76	653,30
3170,86	544,76
3171,95	428,03
3173,04	618,49
3174,13	534,52
3175,22	548,86
3176,31	673,78
3177,40	477,18
3178,49	464,89
3179,58	483,32
3180,67	497,66
3181,76	634,87
3182,85	641,01
3183,94	589,82
3185,03	684,02
3186,11	532,47
3187,20	534,52
3188,29	563,19
3189,37	632,82
3190,46	489,46
3191,55	657,40
3192,63	677,88
3193,72	616,44
3194,80	655,35
3195,89	618,49
3196,97	694,26
3198,05	509,94
3199,14	366,59
3200,22	595,96
3201,30	643,06
3202,38	555,00
3203,47	475,13
3204,55	690,17
3205,63	665,59
3206,71	581,62
3207,79	591,86
3208,87	671,73
3209,95	585,72
3211,03	542,71
3212,11	557,05
3213,19	616,44
3214,27	450,55
3215,34	468,98
3216,42	509,94
3217,50	423,93
3218,58	602,10
3219,65	557,05
3220,73	444,41
3221,80	557,05
3222,88	501,75
3223,96	661,49
3225,03	425,98
3226,10	581,62
3227,18	702,45
3228,25	489,46
3229,33	641,01
3230,40	704,50
3231,47	593,91
3232,54	583,67
3233,62	542,71
3234,69	565,24
3235,76	622,58
3236,83	778,23
3237,90	548,86
3238,97	606,20
3240,04	563,19
3241,11	561,14
3242,18	657,40
3243,25	606,20
3244,32	641,01
3245,39	643,06
3246,45	489,46
3247,52	591,86
3248,59	630,77
3249,66	720,88
3250,72	559,10
3251,79	641,01
3252,85	577,53
3253,92	634,87
3254,98	575,48
3256,05	555,00
3257,11	487,42
3258,18	681,97
3259,24	485,37
3260,30	614,39
3261,37	450,55
3262,43	571,38
3263,49	538,62
3264,55	552,95
3265,62	610,29
3266,68	538,62
3267,74	501,75
3268,80	579,58
3269,86	552,95
3270,92	487,42
3271,98	495,61
3273,04	532,47
3274,10	483,32
3275,16	587,77
3276,21	530,42
3277,27	602,10
3278,33	638,97
3279,39	548,86
3280,44	489,46
3281,50	518,14
3282,56	475,13
3283,61	544,76
3284,67	483,32
3285,72	655,35
3286,78	702,45
3287,83	466,94
3288,88	528,38
3289,94	655,35
3290,99	505,85
3292,04	522,23
3293,10	495,61
3294,15	538,62
3295,20	622,58
3296,25	706,55
3297,30	536,57
3298,36	673,78
3299,41	509,94
3300,46	491,51
3301,51	524,28
3302,56	460,79
3303,61	460,79
3304,65	579,58
3305,70	479,22
3306,75	661,49
3307,80	442,36
3308,85	434,17
3309,89	706,55
3310,94	280,57
3311,99	540,66
3313,03	591,86
3314,08	499,70
3315,12	448,51
3316,17	454,65
3317,21	620,53
3318,26	602,10
3319,30	802,80
3320,35	546,81
3321,39	610,29
3322,43	356,35
3323,48	522,23
3324,52	526,33
3325,56	675,83
3326,60	565,24
3327,64	589,81
3328,68	487,42
3329,73	550,90
3330,77	526,33
3331,81	667,64
3332,85	501,75
3333,88	462,84
3334,92	387,07
3335,96	643,06
3337,00	452,60
3338,04	550,90
3339,08	473,08
3340,11	641,01
3341,15	557,05
3342,19	407,55
3343,22	751,60
3344,26	616,44
3345,30	518,14
3346,33	444,41
3347,37	626,68
3348,40	460,79
3349,43	653,30
3350,47	534,52
3351,50	559,10
3352,54	577,53
3353,57	458,74
3354,60	618,49
3355,63	499,70
3356,67	591,86
3357,70	460,79
3358,73	411,64
3359,76	352,25
3360,79	428,03
3361,82	372,73
3362,85	497,66
3363,88	331,77
3364,91	661,49
3365,94	423,93
3366,97	473,08
3367,99	428,03
3369,02	509,94
3370,05	487,42
3371,08	571,38
3372,10	360,44
3373,13	616,44
3374,16	555,00
3375,18	518,14
3376,21	569,34
3377,23	464,89
3378,26	557,05
3379,28	505,85
3380,31	591,86
3381,33	530,42
3382,35	583,67
3383,38	561,14
3384,40	563,19
3385,42	475,13
3386,45	501,75
3387,47	495,61
3388,49	559,10
3389,51	436,22
3390,53	454,65
3391,55	415,74
3392,57	419,83
3393,59	540,66
3394,61	499,70
3395,63	528,38
3396,65	425,98
3397,67	579,58
3398,69	505,85
3399,70	430,07
3400,72	440,31
3401,74	645,11
3402,76	536,57
3403,77	509,94
3404,79	501,75
3405,80	430,07
3406,82	495,61
3407,83	471,03
3408,85	493,56
3409,86	532,47
3410,88	565,24
3411,89	477,18
3412,91	475,13
3413,92	452,60
3414,93	434,17
3415,94	571,38
3416,96	405,50
3417,97	395,26
3418,98	499,70
3419,99	581,62
3421,00	579,58
3422,01	434,17
3423,02	632,82
3424,03	694,26
3425,04	573,43
3426,05	493,56
3427,06	589,82
3428,07	589,81
3429,08	587,77
3430,09	552,95
3431,09	458,75
3432,10	581,62
3433,11	696,31
3434,12	536,57
3435,12	370,68
3436,13	516,09
3437,13	747,51
3438,14	509,94
3439,14	624,63
3440,15	526,33
3441,15	401,40
3442,16	561,14
3443,16	509,94
3444,16	458,74
3445,17	520,18
3446,17	552,95
3447,17	391,16
3448,17	524,28
3449,18	448,51
3450,18	489,46
3451,18	565,24
3452,18	612,34
3453,18	587,77
3454,18	405,50
3455,18	645,11
3456,18	339,96
3457,18	499,70
3458,18	598,01
3459,17	593,91
3460,17	450,55
3461,17	575,48
3462,17	511,99
3463,17	550,90
3464,16	473,08
3465,16	557,05
3466,15	368,63
3467,15	497,66
3468,15	571,38
3469,14	565,24
3470,14	540,66
3471,13	403,45
3472,13	442,36
3473,12	436,22
3474,11	598,01
3475,11	540,66
3476,10	542,71
3477,09	415,74
3478,08	610,29
3479,08	448,51
3480,07	516,09
3481,06	493,56
3482,05	456,70
3483,04	440,31
3484,03	528,38
3485,02	548,86
3486,01	491,51
3487,00	518,14
3487,99	571,38
3488,98	475,13
3489,97	487,42
3490,95	393,21
3491,94	477,18
3492,93	530,42
3493,92	516,09
3494,90	538,62
3495,89	405,50
3496,88	434,17
3497,86	430,07
3498,85	514,04
3499,83	604,15
3500,82	436,22
3501,80	335,87
3502,79	460,79
3503,77	462,84
3504,75	397,31
3505,74	485,37
3506,72	391,16
3507,70	417,79
3508,68	409,59
3509,67	442,36
3510,65	489,46
3511,63	423,93
3512,61	407,55
3513,59	440,31
3514,57	481,27
3515,55	618,49
3516,53	415,74
3517,51	600,05
3518,49	501,75
3519,47	608,25
3520,45	491,51
3521,42	419,83
3522,40	507,90
3523,38	417,79
3524,36	421,88
3525,33	503,80
3526,31	466,94
3527,29	518,14
3528,26	569,34
3529,24	364,54
3530,21	339,96
3531,19	442,36
3532,16	491,51
3533,14	454,65
3534,11	419,83
3535,08	360,44
3536,06	370,68
3537,03	466,94
3538,00	444,41
3538,98	559,10
3539,95	397,31
3540,92	507,90
3541,89	497,66
3542,86	462,84
3543,83	479,22
3544,80	526,33
3545,77	507,90
3546,74	405,50
3547,71	538,62
3548,68	395,26
3549,65	395,26
3550,62	415,74
3551,59	364,54
3552,56	561,14
3553,52	374,78
3554,49	579,58
3555,46	526,33
3556,42	471,03
3557,39	544,76
3558,36	542,71
3559,32	593,91
3560,29	458,74
3561,25	282,62
3562,22	407,55
3563,18	450,55
3564,15	335,87
3565,11	423,93
3566,07	458,74
3567,04	555,00
3568,00	477,18
3568,96	376,83
3569,92	481,27
3570,89	428,03
3571,85	415,74
3572,81	344,06
3573,77	311,29
3574,73	380,92
3575,69	460,79
3576,65	331,77
3577,61	376,83
3578,57	446,46
3579,53	317,44
3580,49	344,06
3581,45	522,23
3582,40	491,51
3583,36	354,30
3584,32	385,02
3585,28	466,94
3586,23	358,39
3587,19	335,87
3588,15	458,74
3589,10	550,90
3590,06	479,22
3591,01	442,36
3591,97	348,15
3592,92	471,03
3593,88	450,55
3594,83	350,20
3595,78	356,35
3596,74	544,76
3597,69	471,03
3598,64	428,03
3599,60	358,39
3600,55	552,95
3601,50	430,07
3602,45	305,15
3603,40	264,19
3604,35	446,46
3605,31	387,07
3606,26	360,44
3607,21	491,51
3608,16	409,59
3609,10	368,63
3610,05	393,21
3611,00	411,64
3611,95	407,55
3612,90	499,70
3613,85	315,39
3614,79	235,52
3615,74	413,69
3616,69	446,46
3617,63	284,67
3618,58	430,07
3619,53	466,94
3620,47	378,87
3621,42	268,28
3622,36	456,70
3623,31	294,91
3624,25	280,57
3625,20	456,70
3626,14	301,05
3627,08	425,98
3628,03	245,76
3628,97	264,19
3629,91	260,09
3630,85	516,09
3631,80	509,94
3632,74	397,31
3633,68	235,52
3634,62	499,70
3635,56	403,45
3636,50	417,79
3637,44	432,12
3638,38	385,02
3639,32	395,26
3640,26	409,59
3641,20	288,76
3642,14	489,46
3643,08	327,67
3644,01	350,20
3644,95	323,58
3645,89	366,59
3646,83	380,92
3647,76	432,12
3648,70	401,40
3649,63	438,27
3650,57	323,58
3651,51	313,34
3652,44	425,98
3653,38	260,09
3654,31	423,93
3655,24	286,72
3656,18	417,79
3657,11	434,17
3658,05	301,05
3658,98	403,45
3659,91	456,70
3660,84	350,20
3661,78	305,15
3662,71	184,32
3663,64	434,17
3664,57	471,03
3665,50	294,91
3666,43	231,42
3667,36	147,45
3668,29	374,78
3669,22	358,39
3670,15	335,87
3671,08	321,53
3672,01	399,35
3672,94	278,52
3673,86	307,20
3674,79	372,73
3675,72	198,65
3676,65	491,51
3677,57	389,11
3678,50	350,20
3679,43	403,45
3680,35	411,64
3681,28	387,07
3682,20	487,42
3683,13	348,15
3684,05	366,59
3684,98	339,96
3685,90	452,60
3686,83	292,86
3687,75	438,27
3688,67	372,73
3689,60	342,01
3690,52	382,97
3691,44	442,36
3692,36	432,12
3693,28	337,91
3694,21	196,61
3695,13	389,11
3696,05	452,60
3696,97	358,39
3697,89	335,87
3698,81	387,07
3699,73	366,59
3700,65	466,94
3701,57	391,16
3702,48	212,99
3703,40	464,89
3704,32	425,98
3705,24	440,31
3706,16	395,26
3707,07	372,73
3707,99	262,14
3708,91	372,73
3709,82	483,32
3710,74	362,49
3711,66	483,32
3712,57	270,33
3713,49	538,62
3714,40	372,73
3715,31	350,20
3716,23	456,70
3717,14	260,09
3718,06	417,79
3718,97	356,35
3719,88	276,48
3720,80	360,44
3721,71	172,03
3722,62	282,62
3723,53	385,02
3724,44	292,86
3725,35	436,22
3726,26	296,96
3727,18	247,80
3728,09	188,41
3729,00	335,87
3729,91	370,68
3730,81	425,98
3731,72	352,25
3732,63	423,93
3733,54	405,50
3734,45	362,49
3735,36	321,53
3736,26	550,90
3737,17	401,40
3738,08	393,21
3738,99	284,67
3739,89	210,94
3740,80	362,49
3741,70	335,87
3742,61	202,75
3743,51	323,58
3744,42	151,55
3745,32	339,96
3746,23	321,53
3747,13	241,66
3748,04	403,45
3748,94	227,32
3749,84	382,97
3750,74	350,20
3751,65	395,26
3752,55	339,96
3753,45	172,03
3754,35	485,37
3755,25	227,32
3756,16	301,05
3757,06	358,39
3757,96	288,76
3758,86	391,16
3759,76	335,87
3760,66	368,63
3761,55	288,76
3762,45	432,12
3763,35	227,32
3764,25	317,44
3765,15	473,08
3766,05	342,01
3766,94	227,32
3767,84	415,74
3768,74	172,03
3769,63	223,23
3770,53	239,61
3771,43	374,78
3772,32	305,15
3773,22	352,25
3774,11	364,54
3775,01	147,45
3775,90	247,80
3776,80	282,62
3777,69	374,78
3778,58	327,67
3779,48	464,89
3780,37	382,97
3781,26	356,35
3782,16	368,63
3783,05	339,96
3783,94	350,20
3784,83	311,29
3785,72	325,63
3786,61	430,07
3787,50	327,67
3788,39	219,13
3789,28	466,94
3790,17	276,48
3791,06	212,99
3791,95	399,35
3792,84	272,38
3793,73	2,05
3794,62	231,42
3795,51	286,72
3796,39	401,40
3797,28	378,87
3798,17	417,79
3799,06	200,70
3799,94	143,36
3800,83	329,72
3801,71	98,30
3802,60	256,00
3803,48	327,68
3804,37	323,58
3805,25	339,96
3806,14	272,38
3807,02	272,38
3807,91	233,47
3808,79	280,57
3809,67	397,31
3810,56	268,28
3811,44	305,15
3812,32	296,96
3813,20	223,23
3814,09	262,14
3814,97	235,52
3815,85	288,76
3816,73	305,15
3817,61	307,20
3818,49	165,89
3819,37	196,61
3820,25	63,49
3821,13	296,96
3822,01	354,30
3822,89	192,51
3823,77	219,13
3824,65	182,27
3825,52	299,00
3826,40	280,57
3827,28	190,46
3828,16	135,17
3829,03	278,52
3829,91	264,19
3830,79	409,59
3831,66	229,37
3832,54	299,00
3833,41	98,30
3834,29	409,59
3835,16	358,39
3836,04	301,05
3836,91	303,10
3837,79	317,44
3838,66	231,42
3839,53	466,94
3840,41	241,66
3841,28	356,35
3842,15	342,01
3843,02	346,11
3843,90	286,72
3844,77	294,91
3845,64	247,80
3846,51	278,52
3847,38	395,26
3848,25	276,48
3849,12	231,42
3849,99	339,96
3850,86	157,69
3851,73	202,75
3852,60	387,07
3853,47	247,80
3854,34	208,89
3855,21	292,86
3856,07	348,15
3856,94	239,61
3857,81	208,89
3858,68	243,71
3859,54	339,96
3860,41	260,09
3861,28	258,04
3862,14	204,80
3863,01	296,96
3863,87	243,71
3864,74	243,71
3865,60	344,06
3866,47	231,42
3867,33	315,39
3868,19	233,47
3869,06	221,18
3869,92	256,00
3870,78	301,05
3871,65	280,57
3872,51	303,10
3873,37	-395,26
3874,23	505,85
3875,10	389,11
3875,96	274,43
3876,82	223,23
3877,68	182,27
3878,54	129,02
3879,40	245,76
3880,26	292,86
3881,12	317,44
3881,98	270,33
3882,84	180,22
3883,70	135,17
3884,55	329,72
3885,41	163,84
3886,27	239,61
3887,13	237,56
3887,99	348,15
3888,84	258,04
3889,70	321,53
3890,56	393,21
3891,41	380,92
3892,27	245,76
3893,12	198,65
3893,98	210,94
3894,83	296,96
3895,69	317,44
3896,54	315,39
3897,40	366,59
3898,25	389,11
3899,11	184,32
3899,96	378,87
3900,81	192,51
3901,66	141,31
3902,52	272,38
3903,37	354,30
3904,22	233,47
3905,07	204,80
3905,92	131,07
3906,78	270,33
3907,63	331,77
>>>>>End Processed Spectral Data<<<<<
